I,II,III,aVR,aVL,aVF,V1,V2,V3,V4,V5,V6
0.052985,0.063582,0.026492,-0.042388,0.015895,0.037089,-0.015895,0.021194,0.042388,0.058283,0.052985,0.031791
-0.009882,-0.011859,-0.004941,0.007906,-0.002965,-0.006918,0.002965,-0.003953,-0.007906,-0.010870,-0.009882,-0.005929
0.025223,0.030267,0.012611,-0.020178,0.007567,0.017656,-0.007567,0.010089,0.020178,0.027745,0.025223,0.015134
-0.005398,-0.006477,-0.002699,0.004318,-0.001619,-0.003779,0.001619,-0.002159,-0.004318,-0.005938,-0.005398,-0.003239
0.017046,0.020455,0.008523,-0.013637,0.005114,0.011932,-0.005114,0.006818,0.013637,0.018750,0.017046,0.010228
-0.022576,-0.027091,-0.011288,0.018061,-0.006773,-0.015803,0.006773,-0.009030,-0.018061,-0.024833,-0.022576,-0.013546
-0.051230,-0.061475,-0.025615,0.040984,-0.015369,-0.035861,0.015369,-0.020492,-0.040984,-0.056353,-0.051230,-0.030738
-0.054049,-0.064858,-0.027024,0.043239,-0.016215,-0.037834,0.016215,-0.021619,-0.043239,-0.059453,-0.054049,-0.032429
0.011586,0.013903,0.005793,-0.009269,0.003476,0.008110,-0.003476,0.004634,0.009269,0.012745,0.011586,0.006952
0.067614,0.081136,0.033807,-0.054091,0.020284,0.047330,-0.020284,0.027045,0.054091,0.074375,0.067614,0.040568
0.008443,0.010132,0.004222,-0.006754,0.002533,0.005910,-0.002533,0.003377,0.006754,0.009287,0.008443,0.005066
-0.015062,-0.018074,-0.007531,0.012049,-0.004519,-0.010543,0.004519,-0.006025,-0.012049,-0.016568,-0.015062,-0.009037
0.058586,0.070303,0.029293,-0.046869,0.017576,0.041010,-0.017576,0.023434,0.046869,0.064445,0.058586,0.035152
0.009263,0.011116,0.004632,-0.007411,0.002779,0.006484,-0.002779,0.003705,0.007411,0.010190,0.009263,0.005558
0.006668,0.008001,0.003334,-0.005334,0.002000,0.004667,-0.002000,0.002667,0.005334,0.007335,0.006668,0.004001
0.013496,0.016195,0.006748,-0.010797,0.004049,0.009447,-0.004049,0.005398,0.010797,0.014846,0.013496,0.008098
0.005365,0.006438,0.002682,-0.004292,0.001609,0.003755,-0.001609,0.002146,0.004292,0.005901,0.005365,0.003219
0.004941,0.005929,0.002470,-0.003953,0.001482,0.003459,-0.001482,0.001976,0.003953,0.005435,0.004941,0.002964
-0.022112,-0.026534,-0.011056,0.017689,-0.006634,-0.015478,0.006634,-0.008845,-0.017689,-0.024323,-0.022112,-0.013267
0.044816,0.053780,0.022408,-0.035853,0.013445,0.031372,-0.013445,0.017927,0.035853,0.049298,0.044816,0.026890
0.038040,0.045648,0.019020,-0.030432,0.011412,0.026628,-0.011412,0.015216,0.030432,0.041844,0.038040,0.022824
0.090031,0.108037,0.045015,-0.072025,0.027009,0.063022,-0.027009,0.036012,0.072025,0.099034,0.090031,0.054019
0.058444,0.070133,0.029222,-0.046755,0.017533,0.040911,-0.017533,0.023378,0.046755,0.064288,0.058444,0.035066
0.028856,0.034628,0.014428,-0.023085,0.008657,0.020199,-0.008657,0.011543,0.023085,0.031742,0.028856,0.017314
0.099909,0.119891,0.049955,-0.079927,0.029973,0.069937,-0.029973,0.039964,0.079927,0.109900,0.099909,0.059946
0.169847,0.203817,0.084924,-0.135878,0.050954,0.118893,-0.050954,0.067939,0.135878,0.186832,0.169847,0.101908
0.121128,0.145353,0.060564,-0.096902,0.036338,0.084789,-0.036338,0.048451,0.096902,0.133240,0.121128,0.072677
0.116264,0.139517,0.058132,-0.093011,0.034879,0.081385,-0.034879,0.046506,0.093011,0.127890,0.116264,0.069758
0.113043,0.135651,0.056521,-0.090434,0.033913,0.079130,-0.033913,0.045217,0.090434,0.124347,0.113043,0.067826
0.118211,0.141854,0.059106,-0.094569,0.035463,0.082748,-0.035463,0.047285,0.094569,0.130032,0.118211,0.070927
0.136449,0.163739,0.068225,-0.109159,0.040935,0.095515,-0.040935,0.054580,0.109159,0.150094,0.136449,0.081870
0.101112,0.121335,0.050556,-0.080890,0.030334,0.070779,-0.030334,0.040445,0.080890,0.111223,0.101112,0.060667
0.168689,0.202426,0.084344,-0.134951,0.050607,0.118082,-0.050607,0.067475,0.134951,0.185557,0.168689,0.101213
0.099902,0.119883,0.049951,-0.079922,0.029971,0.069932,-0.029971,0.039961,0.079922,0.109892,0.099902,0.059941
0.094944,0.113933,0.047472,-0.075955,0.028483,0.066461,-0.028483,0.037978,0.075955,0.104439,0.094944,0.056967
0.118069,0.141683,0.059035,-0.094455,0.035421,0.082648,-0.035421,0.047228,0.094455,0.129876,0.118069,0.070841
0.104240,0.125088,0.052120,-0.083392,0.031272,0.072968,-0.031272,0.041696,0.083392,0.114664,0.104240,0.062544
0.038714,0.046456,0.019357,-0.030971,0.011614,0.027100,-0.011614,0.015485,0.030971,0.042585,0.038714,0.023228
0.043175,0.051810,0.021588,-0.034540,0.012953,0.030223,-0.012953,0.017270,0.034540,0.047493,0.043175,0.025905
0.045684,0.054821,0.022842,-0.036547,0.013705,0.031979,-0.013705,0.018274,0.036547,0.050253,0.045684,0.027411
0.010457,0.012548,0.005228,-0.008365,0.003137,0.007320,-0.003137,0.004183,0.008365,0.011502,0.010457,0.006274
-0.042561,-0.051073,-0.021281,0.034049,-0.012768,-0.029793,0.012768,-0.017024,-0.034049,-0.046817,-0.042561,-0.025537
0.026535,0.031842,0.013268,-0.021228,0.007961,0.018575,-0.007961,0.010614,0.021228,0.029189,0.026535,0.015921
0.031027,0.037232,0.015514,-0.024822,0.009308,0.021719,-0.009308,0.012411,0.024822,0.034130,0.031027,0.018616
0.014722,0.017666,0.007361,-0.011777,0.004416,0.010305,-0.004416,0.005889,0.011777,0.016194,0.014722,0.008833
-0.027172,-0.032607,-0.013586,0.021738,-0.008152,-0.019021,0.008152,-0.010869,-0.021738,-0.029889,-0.027172,-0.016303
-0.007641,-0.009169,-0.003820,0.006113,-0.002292,-0.005348,0.002292,-0.003056,-0.006113,-0.008405,-0.007641,-0.004584
-0.023529,-0.028235,-0.011765,0.018823,-0.007059,-0.016470,0.007059,-0.009412,-0.018823,-0.025882,-0.023529,-0.014117
-0.022136,-0.026563,-0.011068,0.017708,-0.006641,-0.015495,0.006641,-0.008854,-0.017708,-0.024349,-0.022136,-0.013281
0.013684,0.016420,0.006842,-0.010947,0.004105,0.009579,-0.004105,0.005473,0.010947,0.015052,0.013684,0.008210
0.003442,0.004131,0.001721,-0.002754,0.001033,0.002410,-0.001033,0.001377,0.002754,0.003786,0.003442,0.002065
-0.043010,-0.051612,-0.021505,0.034408,-0.012903,-0.030107,0.012903,-0.017204,-0.034408,-0.047311,-0.043010,-0.025806
-0.066519,-0.079823,-0.033260,0.053215,-0.019956,-0.046563,0.019956,-0.026608,-0.053215,-0.073171,-0.066519,-0.039911
-0.076290,-0.091548,-0.038145,0.061032,-0.022887,-0.053403,0.022887,-0.030516,-0.061032,-0.083919,-0.076290,-0.045774
-0.099750,-0.119701,-0.049875,0.079800,-0.029925,-0.069825,0.029925,-0.039900,-0.079800,-0.109726,-0.099750,-0.059850
-0.092049,-0.110458,-0.046024,0.073639,-0.027615,-0.064434,0.027615,-0.036819,-0.073639,-0.101253,-0.092049,-0.055229
-0.088885,-0.106662,-0.044442,0.071108,-0.026665,-0.062219,0.026665,-0.035554,-0.071108,-0.097773,-0.088885,-0.053331
-0.037097,-0.044516,-0.018548,0.029677,-0.011129,-0.025968,0.011129,-0.014839,-0.029677,-0.040806,-0.037097,-0.022258
0.086707,0.104048,0.043353,-0.069366,0.026012,0.060695,-0.026012,0.034683,0.069366,0.095378,0.086707,0.052024
0.142919,0.171503,0.071459,-0.114335,0.042876,0.100043,-0.042876,0.057168,0.114335,0.157211,0.142919,0.085751
0.280506,0.336607,0.140253,-0.224405,0.084152,0.196354,-0.084152,0.112202,0.224405,0.308557,0.280506,0.168304
0.548397,0.658076,0.274198,-0.438717,0.164519,0.383878,-0.164519,0.219359,0.438717,0.603236,0.548397,0.329038
0.885293,1.062352,0.442647,-0.708235,0.265588,0.619705,-0.265588,0.354117,0.708235,0.973823,0.885293,0.531176
1.265085,1.518102,0.632542,-1.012068,0.379525,0.885559,-0.379525,0.506034,1.012068,1.391593,1.265085,0.759051
1.482072,1.778486,0.741036,-1.185657,0.444621,1.037450,-0.444621,0.592829,1.185657,1.630279,1.482072,0.889243
1.427152,1.712582,0.713576,-1.141721,0.428145,0.999006,-0.428145,0.570861,1.141721,1.569867,1.427152,0.856291
1.268968,1.522762,0.634484,-1.015175,0.380690,0.888278,-0.380690,0.507587,1.015175,1.395865,1.268968,0.761381
0.895672,1.074807,0.447836,-0.716538,0.268702,0.626971,-0.268702,0.358269,0.716538,0.985240,0.895672,0.537403
0.609202,0.731042,0.304601,-0.487362,0.182761,0.426441,-0.182761,0.243681,0.487362,0.670122,0.609202,0.365521
0.303925,0.364710,0.151962,-0.243140,0.091177,0.212747,-0.091177,0.121570,0.243140,0.334317,0.303925,0.182355
0.184471,0.221365,0.092236,-0.147577,0.055341,0.129130,-0.055341,0.073788,0.147577,0.202918,0.184471,0.110683
0.031313,0.037575,0.015656,-0.025050,0.009394,0.021919,-0.009394,0.012525,0.025050,0.034444,0.031313,0.018788
-0.008979,-0.010775,-0.004490,0.007183,-0.002694,-0.006286,0.002694,-0.003592,-0.007183,-0.009877,-0.008979,-0.005388
-0.024032,-0.028838,-0.012016,0.019225,-0.007210,-0.016822,0.007210,-0.009613,-0.019225,-0.026435,-0.024032,-0.014419
-0.039582,-0.047499,-0.019791,0.031666,-0.011875,-0.027708,0.011875,-0.015833,-0.031666,-0.043541,-0.039582,-0.023749
-0.105482,-0.126579,-0.052741,0.084386,-0.031645,-0.073838,0.031645,-0.042193,-0.084386,-0.116030,-0.105482,-0.063289
-0.221035,-0.265241,-0.110517,0.176828,-0.066310,-0.154724,0.066310,-0.088414,-0.176828,-0.243138,-0.221035,-0.132621
-0.239015,-0.286818,-0.119507,0.191212,-0.071704,-0.167310,0.071704,-0.095606,-0.191212,-0.262916,-0.239015,-0.143409
-0.286908,-0.344290,-0.143454,0.229527,-0.086072,-0.200836,0.086072,-0.114763,-0.229527,-0.315599,-0.286908,-0.172145
-0.312347,-0.374817,-0.156174,0.249878,-0.093704,-0.218643,0.093704,-0.124939,-0.249878,-0.343582,-0.312347,-0.187408
-0.295573,-0.354688,-0.147786,0.236458,-0.088672,-0.206901,0.088672,-0.118229,-0.236458,-0.325130,-0.295573,-0.177344
-0.172996,-0.207595,-0.086498,0.138397,-0.051899,-0.121097,0.051899,-0.069198,-0.138397,-0.190296,-0.172996,-0.103798
-0.174639,-0.209566,-0.087319,0.139711,-0.052392,-0.122247,0.052392,-0.069855,-0.139711,-0.192103,-0.174639,-0.104783
-0.129615,-0.155538,-0.064807,0.103692,-0.038884,-0.090730,0.038884,-0.051846,-0.103692,-0.142576,-0.129615,-0.077769
-0.039888,-0.047866,-0.019944,0.031911,-0.011967,-0.027922,0.011967,-0.015955,-0.031911,-0.043877,-0.039888,-0.023933
-0.025578,-0.030693,-0.012789,0.020462,-0.007673,-0.017904,0.007673,-0.010231,-0.020462,-0.028136,-0.025578,-0.015347
-0.015215,-0.018258,-0.007607,0.012172,-0.004564,-0.010650,0.004564,-0.006086,-0.012172,-0.016736,-0.015215,-0.009129
0.018591,0.022309,0.009295,-0.014873,0.005577,0.013014,-0.005577,0.007436,0.014873,0.020450,0.018591,0.011155
0.013321,0.015985,0.006660,-0.010657,0.003996,0.009324,-0.003996,0.005328,0.010657,0.014653,0.013321,0.007992
0.010953,0.013144,0.005476,-0.008762,0.003286,0.007667,-0.003286,0.004381,0.008762,0.012048,0.010953,0.006572
0.029653,0.035584,0.014827,-0.023722,0.008896,0.020757,-0.008896,0.011861,0.023722,0.032618,0.029653,0.017792
0.009662,0.011594,0.004831,-0.007729,0.002898,0.006763,-0.002898,0.003865,0.007729,0.010628,0.009662,0.005797
-0.016921,-0.020305,-0.008460,0.013536,-0.005076,-0.011844,0.005076,-0.006768,-0.013536,-0.018613,-0.016921,-0.010152
-0.008749,-0.010499,-0.004375,0.007000,-0.002625,-0.006125,0.002625,-0.003500,-0.007000,-0.009624,-0.008749,-0.005250
-0.012834,-0.015401,-0.006417,0.010267,-0.003850,-0.008984,0.003850,-0.005134,-0.010267,-0.014118,-0.012834,-0.007701
0.009944,0.011933,0.004972,-0.007955,0.002983,0.006961,-0.002983,0.003978,0.007955,0.010939,0.009944,0.005966
-0.027608,-0.033129,-0.013804,0.022086,-0.008282,-0.019326,0.008282,-0.011043,-0.022086,-0.030369,-0.027608,-0.016565
-0.048896,-0.058675,-0.024448,0.039117,-0.014669,-0.034227,0.014669,-0.019558,-0.039117,-0.053785,-0.048896,-0.029337
0.010382,0.012459,0.005191,-0.008306,0.003115,0.007268,-0.003115,0.004153,0.008306,0.011420,0.010382,0.006229
-0.030329,-0.036394,-0.015164,0.024263,-0.009099,-0.021230,0.009099,-0.012131,-0.024263,-0.033362,-0.030329,-0.018197
-0.046337,-0.055604,-0.023169,0.037070,-0.013901,-0.032436,0.013901,-0.018535,-0.037070,-0.050971,-0.046337,-0.027802
0.026363,0.031636,0.013182,-0.021091,0.007909,0.018454,-0.007909,0.010545,0.021091,0.028999,0.026363,0.015818
-0.002682,-0.003218,-0.001341,0.002145,-0.000805,-0.001877,0.000805,-0.001073,-0.002145,-0.002950,-0.002682,-0.001609
0.037624,0.045149,0.018812,-0.030099,0.011287,0.026337,-0.011287,0.015050,0.030099,0.041386,0.037624,0.022574
0.011564,0.013876,0.005782,-0.009251,0.003469,0.008094,-0.003469,0.004625,0.009251,0.012720,0.011564,0.006938
-0.000716,-0.000859,-0.000358,0.000572,-0.000215,-0.000501,0.000215,-0.000286,-0.000572,-0.000787,-0.000716,-0.000429
0.001834,0.002201,0.000917,-0.001467,0.000550,0.001284,-0.000550,0.000734,0.001467,0.002018,0.001834,0.001100
0.030653,0.036783,0.015326,-0.024522,0.009196,0.021457,-0.009196,0.012261,0.024522,0.033718,0.030653,0.018392
0.045630,0.054756,0.022815,-0.036504,0.013689,0.031941,-0.013689,0.018252,0.036504,0.050193,0.045630,0.027378
0.037614,0.045137,0.018807,-0.030091,0.011284,0.026330,-0.011284,0.015046,0.030091,0.041376,0.037614,0.022569
0.063087,0.075705,0.031544,-0.050470,0.018926,0.044161,-0.018926,0.025235,0.050470,0.069396,0.063087,0.037852
0.035291,0.042350,0.017646,-0.028233,0.010587,0.024704,-0.010587,0.014117,0.028233,0.038821,0.035291,0.021175
0.092223,0.110668,0.046112,-0.073779,0.027667,0.064556,-0.027667,0.036889,0.073779,0.101446,0.092223,0.055334
0.048834,0.058601,0.024417,-0.039067,0.014650,0.034184,-0.014650,0.019534,0.039067,0.053717,0.048834,0.029300
0.107977,0.129572,0.053989,-0.086382,0.032393,0.075584,-0.032393,0.043191,0.086382,0.118775,0.107977,0.064786
0.145985,0.175182,0.072993,-0.116788,0.043796,0.102190,-0.043796,0.058394,0.116788,0.160584,0.145985,0.087591
0.169031,0.202837,0.084515,-0.135225,0.050709,0.118321,-0.050709,0.067612,0.135225,0.185934,0.169031,0.101418
0.198635,0.238362,0.099317,-0.158908,0.059590,0.139044,-0.059590,0.079454,0.158908,0.218498,0.198635,0.119181
0.110952,0.133143,0.055476,-0.088762,0.033286,0.077667,-0.033286,0.044381,0.088762,0.122048,0.110952,0.066571
0.190126,0.228151,0.095063,-0.152101,0.057038,0.133088,-0.057038,0.076050,0.152101,0.209139,0.190126,0.114076
0.212345,0.254814,0.106172,-0.169876,0.063703,0.148641,-0.063703,0.084938,0.169876,0.233579,0.212345,0.127407
0.213229,0.255875,0.106615,-0.170584,0.063969,0.149261,-0.063969,0.085292,0.170584,0.234552,0.213229,0.127938
0.162270,0.194724,0.081135,-0.129816,0.048681,0.113589,-0.048681,0.064908,0.129816,0.178497,0.162270,0.097362
0.207364,0.248836,0.103682,-0.165891,0.062209,0.145154,-0.062209,0.082945,0.165891,0.228100,0.207364,0.124418
0.254073,0.304887,0.127036,-0.203258,0.076222,0.177851,-0.076222,0.101629,0.203258,0.279480,0.254073,0.152444
0.154932,0.185919,0.077466,-0.123946,0.046480,0.108453,-0.046480,0.061973,0.123946,0.170426,0.154932,0.092959
0.213998,0.256797,0.106999,-0.171198,0.064199,0.149798,-0.064199,0.085599,0.171198,0.235397,0.213998,0.128399
0.231215,0.277458,0.115608,-0.184972,0.069365,0.161851,-0.069365,0.092486,0.184972,0.254337,0.231215,0.138729
0.173419,0.208103,0.086710,-0.138735,0.052026,0.121393,-0.052026,0.069368,0.138735,0.190761,0.173419,0.104052
0.206702,0.248042,0.103351,-0.165361,0.062010,0.144691,-0.062010,0.082681,0.165361,0.227372,0.206702,0.124021
0.150541,0.180650,0.075271,-0.120433,0.045162,0.105379,-0.045162,0.060217,0.120433,0.165595,0.150541,0.090325
0.150491,0.180589,0.075245,-0.120393,0.045147,0.105344,-0.045147,0.060196,0.120393,0.165540,0.150491,0.090294
0.141476,0.169771,0.070738,-0.113181,0.042443,0.099033,-0.042443,0.056590,0.113181,0.155624,0.141476,0.084886
0.162075,0.194490,0.081038,-0.129660,0.048623,0.113453,-0.048623,0.064830,0.129660,0.178283,0.162075,0.097245
0.143357,0.172028,0.071678,-0.114685,0.043007,0.100350,-0.043007,0.057343,0.114685,0.157693,0.143357,0.086014
0.164267,0.197120,0.082133,-0.131414,0.049280,0.114987,-0.049280,0.065707,0.131414,0.180694,0.164267,0.098560
0.097123,0.116547,0.048561,-0.077698,0.029137,0.067986,-0.029137,0.038849,0.077698,0.106835,0.097123,0.058274
0.111607,0.133929,0.055804,-0.089286,0.033482,0.078125,-0.033482,0.044643,0.089286,0.122768,0.111607,0.066964
0.135561,0.162673,0.067780,-0.108448,0.040668,0.094892,-0.040668,0.054224,0.108448,0.149117,0.135561,0.081336
0.116178,0.139414,0.058089,-0.092942,0.034853,0.081325,-0.034853,0.046471,0.092942,0.127796,0.116178,0.069707
0.054176,0.065012,0.027088,-0.043341,0.016253,0.037923,-0.016253,0.021671,0.043341,0.059594,0.054176,0.032506
0.110833,0.132999,0.055416,-0.088666,0.033250,0.077583,-0.033250,0.044333,0.088666,0.121916,0.110833,0.066500
0.076268,0.091521,0.038134,-0.061014,0.022880,0.053387,-0.022880,0.030507,0.061014,0.083895,0.076268,0.045761
0.104935,0.125922,0.052467,-0.083948,0.031480,0.073454,-0.031480,0.041974,0.083948,0.115428,0.104935,0.062961
0.108146,0.129775,0.054073,-0.086517,0.032444,0.075702,-0.032444,0.043258,0.086517,0.118960,0.108146,0.064887
0.144142,0.172971,0.072071,-0.115314,0.043243,0.100900,-0.043243,0.057657,0.115314,0.158557,0.144142,0.086485
0.121528,0.145834,0.060764,-0.097222,0.036458,0.085070,-0.036458,0.048611,0.097222,0.133681,0.121528,0.072917
0.073933,0.088720,0.036967,-0.059147,0.022180,0.051753,-0.022180,0.029573,0.059147,0.081327,0.073933,0.044360
0.099780,0.119736,0.049890,-0.079824,0.029934,0.069846,-0.029934,0.039912,0.079824,0.109758,0.099780,0.059868
0.172593,0.207112,0.086297,-0.138075,0.051778,0.120815,-0.051778,0.069037,0.138075,0.189853,0.172593,0.103556
0.149847,0.179816,0.074923,-0.119877,0.044954,0.104893,-0.044954,0.059939,0.119877,0.164832,0.149847,0.089908
0.194771,0.233725,0.097386,-0.155817,0.058431,0.136340,-0.058431,0.077908,0.155817,0.214248,0.194771,0.116863
0.167316,0.200779,0.083658,-0.133853,0.050195,0.117121,-0.050195,0.066926,0.133853,0.184047,0.167316,0.100389
0.130420,0.156504,0.065210,-0.104336,0.039126,0.091294,-0.039126,0.052168,0.104336,0.143462,0.130420,0.078252
0.174816,0.209779,0.087408,-0.139853,0.052445,0.122371,-0.052445,0.069926,0.139853,0.192298,0.174816,0.104890
0.104072,0.124886,0.052036,-0.083258,0.031222,0.072850,-0.031222,0.041629,0.083258,0.114479,0.104072,0.062443
0.050297,0.060357,0.025149,-0.040238,0.015089,0.035208,-0.015089,0.020119,0.040238,0.055327,0.050297,0.030178
0.156270,0.187524,0.078135,-0.125016,0.046881,0.109389,-0.046881,0.062508,0.125016,0.171897,0.156270,0.093762
0.019623,0.023547,0.009811,-0.015698,0.005887,0.013736,-0.005887,0.007849,0.015698,0.021585,0.019623,0.011774
0.079753,0.095704,0.039876,-0.063802,0.023926,0.055827,-0.023926,0.031901,0.063802,0.087728,0.079753,0.047852
0.074393,0.089271,0.037196,-0.059514,0.022318,0.052075,-0.022318,0.029757,0.059514,0.081832,0.074393,0.044636
0.038463,0.046156,0.019232,-0.030771,0.011539,0.026924,-0.011539,0.015385,0.030771,0.042310,0.038463,0.023078
-0.026257,-0.031509,-0.013129,0.021006,-0.007877,-0.018380,0.007877,-0.010503,-0.021006,-0.028883,-0.026257,-0.015754
0.047136,0.056564,0.023568,-0.037709,0.014141,0.032995,-0.014141,0.018855,0.037709,0.051850,0.047136,0.028282
-0.032148,-0.038578,-0.016074,0.025718,-0.009644,-0.022504,0.009644,-0.012859,-0.025718,-0.035363,-0.032148,-0.019289
-0.033187,-0.039825,-0.016594,0.026550,-0.009956,-0.023231,0.009956,-0.013275,-0.026550,-0.036506,-0.033187,-0.019912
-0.006493,-0.007791,-0.003246,0.005194,-0.001948,-0.004545,0.001948,-0.002597,-0.005194,-0.007142,-0.006493,-0.003896
0.026024,0.031229,0.013012,-0.020819,0.007807,0.018217,-0.007807,0.010410,0.020819,0.028627,0.026024,0.015615
0.009616,0.011539,0.004808,-0.007693,0.002885,0.006731,-0.002885,0.003846,0.007693,0.010577,0.009616,0.005769
0.022617,0.027140,0.011309,-0.018094,0.006785,0.015832,-0.006785,0.009047,0.018094,0.024879,0.022617,0.013570
-0.019078,-0.022894,-0.009539,0.015263,-0.005724,-0.013355,0.005724,-0.007631,-0.015263,-0.020986,-0.019078,-0.011447
-0.018285,-0.021942,-0.009142,0.014628,-0.005485,-0.012799,0.005485,-0.007314,-0.014628,-0.020113,-0.018285,-0.010971
-0.059320,-0.071184,-0.029660,0.047456,-0.017796,-0.041524,0.017796,-0.023728,-0.047456,-0.065252,-0.059320,-0.035592
-0.051940,-0.062328,-0.025970,0.041552,-0.015582,-0.036358,0.015582,-0.020776,-0.041552,-0.057134,-0.051940,-0.031164
-0.045291,-0.054350,-0.022646,0.036233,-0.013587,-0.031704,0.013587,-0.018117,-0.036233,-0.049821,-0.045291,-0.027175
-0.091971,-0.110366,-0.045986,0.073577,-0.027591,-0.064380,0.027591,-0.036789,-0.073577,-0.101169,-0.091971,-0.055183
-0.082322,-0.098787,-0.041161,0.065858,-0.024697,-0.057626,0.024697,-0.032929,-0.065858,-0.090555,-0.082322,-0.049393
-0.116579,-0.139895,-0.058290,0.093264,-0.034974,-0.081606,0.034974,-0.046632,-0.093264,-0.128237,-0.116579,-0.069948
-0.107549,-0.129059,-0.053775,0.086039,-0.032265,-0.075284,0.032265,-0.043020,-0.086039,-0.118304,-0.107549,-0.064529
-0.067500,-0.080999,-0.033750,0.054000,-0.020250,-0.047250,0.020250,-0.027000,-0.054000,-0.074250,-0.067500,-0.040500
-0.041266,-0.049520,-0.020633,0.033013,-0.012380,-0.028887,0.012380,-0.016507,-0.033013,-0.045393,-0.041266,-0.024760
0.036680,0.044016,0.018340,-0.029344,0.011004,0.025676,-0.011004,0.014672,0.029344,0.040348,0.036680,0.022008
0.122197,0.146636,0.061098,-0.097757,0.036659,0.085538,-0.036659,0.048879,0.097757,0.134416,0.122197,0.073318
0.342980,0.411576,0.171490,-0.274384,0.102894,0.240086,-0.102894,0.137192,0.274384,0.377278,0.342980,0.205788
0.555970,0.667163,0.277985,-0.444776,0.166791,0.389179,-0.166791,0.222388,0.444776,0.611567,0.555970,0.333582
0.904411,1.085293,0.452205,-0.723528,0.271323,0.633087,-0.271323,0.361764,0.723528,0.994852,0.904411,0.542646
1.222650,1.467180,0.611325,-0.978120,0.366795,0.855855,-0.366795,0.489060,0.978120,1.344915,1.222650,0.733590
1.471009,1.765210,0.735504,-1.176807,0.441303,1.029706,-0.441303,0.588403,1.176807,1.618109,1.471009,0.882605
1.490930,1.789116,0.745465,-1.192744,0.447279,1.043651,-0.447279,0.596372,1.192744,1.640023,1.490930,0.894558
1.232169,1.478603,0.616085,-0.985735,0.369651,0.862518,-0.369651,0.492868,0.985735,1.355386,1.232169,0.739302
0.911266,1.093520,0.455633,-0.729013,0.273380,0.637886,-0.273380,0.364507,0.729013,1.002393,0.911266,0.546760
0.587957,0.705548,0.293979,-0.470366,0.176387,0.411570,-0.176387,0.235183,0.470366,0.646753,0.587957,0.352774
0.295412,0.354495,0.147706,-0.236330,0.088624,0.206789,-0.088624,0.118165,0.236330,0.324954,0.295412,0.177247
0.117365,0.140838,0.058683,-0.093892,0.035210,0.082156,-0.035210,0.046946,0.093892,0.129102,0.117365,0.070419
0.074249,0.089099,0.037125,-0.059400,0.022275,0.051975,-0.022275,0.029700,0.059400,0.081674,0.074249,0.044550
0.002571,0.003085,0.001285,-0.002057,0.000771,0.001800,-0.000771,0.001028,0.002057,0.002828,0.002571,0.001542
-0.021129,-0.025355,-0.010565,0.016903,-0.006339,-0.014790,0.006339,-0.008452,-0.016903,-0.023242,-0.021129,-0.012677
-0.036119,-0.043343,-0.018059,0.028895,-0.010836,-0.025283,0.010836,-0.014448,-0.028895,-0.039731,-0.036119,-0.021671
-0.088099,-0.105719,-0.044050,0.070479,-0.026430,-0.061669,0.026430,-0.035240,-0.070479,-0.096909,-0.088099,-0.052860
-0.194445,-0.233334,-0.097222,0.155556,-0.058333,-0.136111,0.058333,-0.077778,-0.155556,-0.213889,-0.194445,-0.116667
-0.260265,-0.312318,-0.130132,0.208212,-0.078079,-0.182185,0.078079,-0.104106,-0.208212,-0.286291,-0.260265,-0.156159
-0.279046,-0.334856,-0.139523,0.223237,-0.083714,-0.195332,0.083714,-0.111619,-0.223237,-0.306951,-0.279046,-0.167428
-0.303459,-0.364151,-0.151730,0.242767,-0.091038,-0.212421,0.091038,-0.121384,-0.242767,-0.333805,-0.303459,-0.182075
-0.333126,-0.399751,-0.166563,0.266501,-0.099938,-0.233188,0.099938,-0.133250,-0.266501,-0.366438,-0.333126,-0.199875
-0.187163,-0.224595,-0.093581,0.149730,-0.056149,-0.131014,0.056149,-0.074865,-0.149730,-0.205879,-0.187163,-0.112298
-0.162346,-0.194816,-0.081173,0.129877,-0.048704,-0.113642,0.048704,-0.064939,-0.129877,-0.178581,-0.162346,-0.097408
-0.082146,-0.098575,-0.041073,0.065717,-0.024644,-0.057502,0.024644,-0.032858,-0.065717,-0.090361,-0.082146,-0.049288
-0.094189,-0.113027,-0.047095,0.075351,-0.028257,-0.065933,0.028257,-0.037676,-0.075351,-0.103608,-0.094189,-0.056514
0.009150,0.010980,0.004575,-0.007320,0.002745,0.006405,-0.002745,0.003660,0.007320,0.010065,0.009150,0.005490
-0.030588,-0.036706,-0.015294,0.024471,-0.009176,-0.021412,0.009176,-0.012235,-0.024471,-0.033647,-0.030588,-0.018353
-0.008078,-0.009694,-0.004039,0.006463,-0.002423,-0.005655,0.002423,-0.003231,-0.006463,-0.008886,-0.008078,-0.004847
-0.043381,-0.052057,-0.021690,0.034705,-0.013014,-0.030367,0.013014,-0.017352,-0.034705,-0.047719,-0.043381,-0.026028
-0.004921,-0.005905,-0.002461,0.003937,-0.001476,-0.003445,0.001476,-0.001968,-0.003937,-0.005413,-0.004921,-0.002953
-0.006167,-0.007400,-0.003084,0.004934,-0.001850,-0.004317,0.001850,-0.002467,-0.004934,-0.006784,-0.006167,-0.003700
-0.004408,-0.005290,-0.002204,0.003527,-0.001322,-0.003086,0.001322,-0.001763,-0.003527,-0.004849,-0.004408,-0.002645
0.014742,0.017691,0.007371,-0.011794,0.004423,0.010320,-0.004423,0.005897,0.011794,0.016216,0.014742,0.008845
0.003929,0.004715,0.001965,-0.003144,0.001179,0.002751,-0.001179,0.001572,0.003144,0.004322,0.003929,0.002358
0.032068,0.038482,0.016034,-0.025655,0.009621,0.022448,-0.009621,0.012827,0.025655,0.035275,0.032068,0.019241
-0.010392,-0.012471,-0.005196,0.008314,-0.003118,-0.007275,0.003118,-0.004157,-0.008314,-0.011432,-0.010392,-0.006235
-0.025149,-0.030179,-0.012574,0.020119,-0.007545,-0.017604,0.007545,-0.010060,-0.020119,-0.027664,-0.025149,-0.015089
0.005504,0.006605,0.002752,-0.004403,0.001651,0.003853,-0.001651,0.002202,0.004403,0.006054,0.005504,0.003302
0.026589,0.031906,0.013294,-0.021271,0.007977,0.018612,-0.007977,0.010635,0.021271,0.029247,0.026589,0.015953
0.047106,0.056527,0.023553,-0.037685,0.014132,0.032974,-0.014132,0.018842,0.037685,0.051817,0.047106,0.028264
0.036640,0.043968,0.018320,-0.029312,0.010992,0.025648,-0.010992,0.014656,0.029312,0.040304,0.036640,0.021984
-0.037800,-0.045360,-0.018900,0.030240,-0.011340,-0.026460,0.011340,-0.015120,-0.030240,-0.041580,-0.037800,-0.022680
0.029962,0.035954,0.014981,-0.023969,0.008988,0.020973,-0.008988,0.011985,0.023969,0.032958,0.029962,0.017977
0.066551,0.079862,0.033276,-0.053241,0.019965,0.046586,-0.019965,0.026621,0.053241,0.073207,0.066551,0.039931
0.029366,0.035240,0.014683,-0.023493,0.008810,0.020557,-0.008810,0.011747,0.023493,0.032303,0.029366,0.017620
0.017462,0.020955,0.008731,-0.013970,0.005239,0.012223,-0.005239,0.006985,0.013970,0.019208,0.017462,0.010477
0.048414,0.058097,0.024207,-0.038732,0.014524,0.033890,-0.014524,0.019366,0.038732,0.053256,0.048414,0.029049
0.031003,0.037204,0.015502,-0.024803,0.009301,0.021702,-0.009301,0.012401,0.024803,0.034104,0.031003,0.018602
0.073005,0.087606,0.036503,-0.058404,0.021902,0.051104,-0.021902,0.029202,0.058404,0.080306,0.073005,0.043803
0.061928,0.074314,0.030964,-0.049543,0.018578,0.043350,-0.018578,0.024771,0.049543,0.068121,0.061928,0.037157
0.113310,0.135973,0.056655,-0.090648,0.033993,0.079317,-0.033993,0.045324,0.090648,0.124642,0.113310,0.067986
0.096360,0.115632,0.048180,-0.077088,0.028908,0.067452,-0.028908,0.038544,0.077088,0.105996,0.096360,0.057816
0.070072,0.084086,0.035036,-0.056058,0.021022,0.049050,-0.021022,0.028029,0.056058,0.077079,0.070072,0.042043
0.120782,0.144939,0.060391,-0.096626,0.036235,0.084548,-0.036235,0.048313,0.096626,0.132860,0.120782,0.072469
0.141873,0.170248,0.070937,-0.113498,0.042562,0.099311,-0.042562,0.056749,0.113498,0.156060,0.141873,0.085124
0.108013,0.129615,0.054006,-0.086410,0.032404,0.075609,-0.032404,0.043205,0.086410,0.118814,0.108013,0.064808
0.123499,0.148198,0.061749,-0.098799,0.037050,0.086449,-0.037050,0.049399,0.098799,0.135849,0.123499,0.074099
0.078048,0.093657,0.039024,-0.062438,0.023414,0.054634,-0.023414,0.031219,0.062438,0.085853,0.078048,0.046829
0.184743,0.221692,0.092372,-0.147795,0.055423,0.129320,-0.055423,0.073897,0.147795,0.203218,0.184743,0.110846
0.149732,0.179678,0.074866,-0.119785,0.044920,0.104812,-0.044920,0.059893,0.119785,0.164705,0.149732,0.089839
0.112486,0.134983,0.056243,-0.089989,0.033746,0.078740,-0.033746,0.044994,0.089989,0.123735,0.112486,0.067492
0.130750,0.156900,0.065375,-0.104600,0.039225,0.091525,-0.039225,0.052300,0.104600,0.143825,0.130750,0.078450
0.183462,0.220155,0.091731,-0.146770,0.055039,0.128424,-0.055039,0.073385,0.146770,0.201809,0.183462,0.110077
0.217833,0.261400,0.108917,-0.174267,0.065350,0.152483,-0.065350,0.087133,0.174267,0.239617,0.217833,0.130700
0.195608,0.234730,0.097804,-0.156487,0.058682,0.136926,-0.058682,0.078243,0.156487,0.215169,0.195608,0.117365
0.214024,0.256829,0.107012,-0.171219,0.064207,0.149817,-0.064207,0.085610,0.171219,0.235426,0.214024,0.128414
0.166705,0.200046,0.083353,-0.133364,0.050012,0.116694,-0.050012,0.066682,0.133364,0.183376,0.166705,0.100023
0.157694,0.189233,0.078847,-0.126155,0.047308,0.110386,-0.047308,0.063078,0.126155,0.173463,0.157694,0.094616
0.221065,0.265278,0.110533,-0.176852,0.066320,0.154746,-0.066320,0.088426,0.176852,0.243172,0.221065,0.132639
0.204317,0.245180,0.102158,-0.163454,0.061295,0.143022,-0.061295,0.081727,0.163454,0.224749,0.204317,0.122590
0.182385,0.218862,0.091192,-0.145908,0.054715,0.127669,-0.054715,0.072954,0.145908,0.200623,0.182385,0.109431
0.214453,0.257343,0.107226,-0.171562,0.064336,0.150117,-0.064336,0.085781,0.171562,0.235898,0.214453,0.128672
0.139411,0.167294,0.069706,-0.111529,0.041823,0.097588,-0.041823,0.055765,0.111529,0.153352,0.139411,0.083647
0.146962,0.176354,0.073481,-0.117570,0.044089,0.102873,-0.044089,0.058785,0.117570,0.161658,0.146962,0.088177
0.182120,0.218544,0.091060,-0.145696,0.054636,0.127484,-0.054636,0.072848,0.145696,0.200332,0.182120,0.109272
0.198888,0.238666,0.099444,-0.159110,0.059666,0.139222,-0.059666,0.079555,0.159110,0.218777,0.198888,0.119333
0.137665,0.165197,0.068832,-0.110132,0.041299,0.096365,-0.041299,0.055066,0.110132,0.151431,0.137665,0.082599
0.183244,0.219892,0.091622,-0.146595,0.054973,0.128271,-0.054973,0.073297,0.146595,0.201568,0.183244,0.109946
0.112502,0.135002,0.056251,-0.090002,0.033751,0.078751,-0.033751,0.045001,0.090002,0.123752,0.112502,0.067501
0.140794,0.168953,0.070397,-0.112635,0.042238,0.098556,-0.042238,0.056318,0.112635,0.154874,0.140794,0.084477
0.128714,0.154457,0.064357,-0.102971,0.038614,0.090100,-0.038614,0.051486,0.102971,0.141586,0.128714,0.077228
0.091801,0.110161,0.045900,-0.073440,0.027540,0.064260,-0.027540,0.036720,0.073440,0.100981,0.091801,0.055080
0.154639,0.185567,0.077320,-0.123711,0.046392,0.108248,-0.046392,0.061856,0.123711,0.170103,0.154639,0.092784
0.183370,0.220044,0.091685,-0.146696,0.055011,0.128359,-0.055011,0.073348,0.146696,0.201707,0.183370,0.110022
0.159300,0.191160,0.079650,-0.127440,0.047790,0.111510,-0.047790,0.063720,0.127440,0.175230,0.159300,0.095580
0.168571,0.202285,0.084285,-0.134857,0.050571,0.118000,-0.050571,0.067428,0.134857,0.185428,0.168571,0.101143
0.216731,0.260077,0.108365,-0.173385,0.065019,0.151712,-0.065019,0.086692,0.173385,0.238404,0.216731,0.130039
0.138009,0.165611,0.069005,-0.110407,0.041403,0.096606,-0.041403,0.055204,0.110407,0.151810,0.138009,0.082805
0.126798,0.152158,0.063399,-0.101439,0.038040,0.088759,-0.038040,0.050719,0.101439,0.139478,0.126798,0.076079
0.143862,0.172635,0.071931,-0.115090,0.043159,0.100704,-0.043159,0.057545,0.115090,0.158248,0.143862,0.086317
0.115250,0.138300,0.057625,-0.092200,0.034575,0.080675,-0.034575,0.046100,0.092200,0.126775,0.115250,0.069150
0.175929,0.211115,0.087965,-0.140743,0.052779,0.123150,-0.052779,0.070372,0.140743,0.193522,0.175929,0.105557
0.127073,0.152487,0.063536,-0.101658,0.038122,0.088951,-0.038122,0.050829,0.101658,0.139780,0.127073,0.076244
0.073199,0.087838,0.036599,-0.058559,0.021960,0.051239,-0.021960,0.029279,0.058559,0.080519,0.073199,0.043919
0.062320,0.074784,0.031160,-0.049856,0.018696,0.043624,-0.018696,0.024928,0.049856,0.068552,0.062320,0.037392
0.149507,0.179409,0.074754,-0.119606,0.044852,0.104655,-0.044852,0.059803,0.119606,0.164458,0.149507,0.089704
0.030288,0.036346,0.015144,-0.024231,0.009086,0.021202,-0.009086,0.012115,0.024231,0.033317,0.030288,0.018173
0.013026,0.015632,0.006513,-0.010421,0.003908,0.009118,-0.003908,0.005211,0.010421,0.014329,0.013026,0.007816
0.034786,0.041743,0.017393,-0.027829,0.010436,0.024350,-0.010436,0.013914,0.027829,0.038265,0.034786,0.020872
0.036910,0.044292,0.018455,-0.029528,0.011073,0.025837,-0.011073,0.014764,0.029528,0.040601,0.036910,0.022146
0.018561,0.022274,0.009281,-0.014849,0.005568,0.012993,-0.005568,0.007425,0.014849,0.020417,0.018561,0.011137
-0.019530,-0.023435,-0.009765,0.015624,-0.005859,-0.013671,0.005859,-0.007812,-0.015624,-0.021483,-0.019530,-0.011718
-0.029968,-0.035961,-0.014984,0.023974,-0.008990,-0.020978,0.008990,-0.011987,-0.023974,-0.032965,-0.029968,-0.017981
0.020584,0.024701,0.010292,-0.016467,0.006175,0.014409,-0.006175,0.008234,0.016467,0.022643,0.020584,0.012351
-0.000773,-0.000927,-0.000386,0.000618,-0.000232,-0.000541,0.000232,-0.000309,-0.000618,-0.000850,-0.000773,-0.000464
-0.050775,-0.060931,-0.025388,0.040620,-0.015233,-0.035543,0.015233,-0.020310,-0.040620,-0.055853,-0.050775,-0.030465
0.029485,0.035382,0.014742,-0.023588,0.008845,0.020639,-0.008845,0.011794,0.023588,0.032433,0.029485,0.017691
0.010228,0.012274,0.005114,-0.008183,0.003069,0.007160,-0.003069,0.004091,0.008183,0.011251,0.010228,0.006137
-0.032373,-0.038848,-0.016187,0.025899,-0.009712,-0.022661,0.009712,-0.012949,-0.025899,-0.035611,-0.032373,-0.019424
-0.050199,-0.060239,-0.025100,0.040159,-0.015060,-0.035139,0.015060,-0.020080,-0.040159,-0.055219,-0.050199,-0.030120
-0.056112,-0.067334,-0.028056,0.044890,-0.016834,-0.039278,0.016834,-0.022445,-0.044890,-0.061723,-0.056112,-0.033667
-0.103567,-0.124280,-0.051783,0.082853,-0.031070,-0.072497,0.031070,-0.041427,-0.082853,-0.113923,-0.103567,-0.062140
-0.137022,-0.164426,-0.068511,0.109617,-0.041107,-0.095915,0.041107,-0.054809,-0.109617,-0.150724,-0.137022,-0.082213
-0.089697,-0.107636,-0.044848,0.071757,-0.026909,-0.062788,0.026909,-0.035879,-0.071757,-0.098666,-0.089697,-0.053818
-0.132944,-0.159533,-0.066472,0.106355,-0.039883,-0.093061,0.039883,-0.053178,-0.106355,-0.146238,-0.132944,-0.079766
-0.056949,-0.068339,-0.028474,0.045559,-0.017085,-0.039864,0.017085,-0.022780,-0.045559,-0.062644,-0.056949,-0.034169
-0.078654,-0.094384,-0.039327,0.062923,-0.023596,-0.055058,0.023596,-0.031461,-0.062923,-0.086519,-0.078654,-0.047192
0.015934,0.019121,0.007967,-0.012747,0.004780,0.011154,-0.004780,0.006374,0.012747,0.017528,0.015934,0.009561
0.112780,0.135335,0.056390,-0.090224,0.033834,0.078946,-0.033834,0.045112,0.090224,0.124057,0.112780,0.067668
0.344249,0.413099,0.172125,-0.275399,0.103275,0.240975,-0.103275,0.137700,0.275399,0.378674,0.344249,0.206550
0.530623,0.636748,0.265312,-0.424499,0.159187,0.371436,-0.159187,0.212249,0.424499,0.583686,0.530623,0.318374
0.868780,1.042536,0.434390,-0.695024,0.260634,0.608146,-0.260634,0.347512,0.695024,0.955658,0.868780,0.521268
1.234469,1.481362,0.617234,-0.987575,0.370341,0.864128,-0.370341,0.493787,0.987575,1.357915,1.234469,0.740681
1.436613,1.723936,0.718307,-1.149291,0.430984,1.005629,-0.430984,0.574645,1.149291,1.580275,1.436613,0.861968
1.452752,1.743303,0.726376,-1.162202,0.435826,1.016927,-0.435826,0.581101,1.162202,1.598028,1.452752,0.871651
1.267002,1.520403,0.633501,-1.013602,0.380101,0.886902,-0.380101,0.506801,1.013602,1.393702,1.267002,0.760201
0.935916,1.123099,0.467958,-0.748733,0.280775,0.655141,-0.280775,0.374366,0.748733,1.029507,0.935916,0.561550
0.616187,0.739425,0.308094,-0.492950,0.184856,0.431331,-0.184856,0.246475,0.492950,0.677806,0.616187,0.369712
0.277119,0.332543,0.138560,-0.221696,0.083136,0.193984,-0.083136,0.110848,0.221696,0.304831,0.277119,0.166272
0.212095,0.254514,0.106048,-0.169676,0.063629,0.148467,-0.063629,0.084838,0.169676,0.233305,0.212095,0.127257
0.104522,0.125427,0.052261,-0.083618,0.031357,0.073166,-0.031357,0.041809,0.083618,0.114974,0.104522,0.062713
-0.006446,-0.007735,-0.003223,0.005156,-0.001934,-0.004512,0.001934,-0.002578,-0.005156,-0.007090,-0.006446,-0.003867
-0.101769,-0.122122,-0.050884,0.081415,-0.030531,-0.071238,0.030531,-0.040707,-0.081415,-0.111945,-0.101769,-0.061061
-0.073754,-0.088505,-0.036877,0.059003,-0.022126,-0.051628,0.022126,-0.029502,-0.059003,-0.081130,-0.073754,-0.044252
-0.120283,-0.144340,-0.060142,0.096227,-0.036085,-0.084198,0.036085,-0.048113,-0.096227,-0.132312,-0.120283,-0.072170
-0.253006,-0.303608,-0.126503,0.202405,-0.075902,-0.177104,0.075902,-0.101203,-0.202405,-0.278307,-0.253006,-0.151804
-0.242287,-0.290744,-0.121143,0.193830,-0.072686,-0.169601,0.072686,-0.096915,-0.193830,-0.266516,-0.242287,-0.145372
-0.293580,-0.352296,-0.146790,0.234864,-0.088074,-0.205506,0.088074,-0.117432,-0.234864,-0.322938,-0.293580,-0.176148
-0.323047,-0.387656,-0.161523,0.258437,-0.096914,-0.226133,0.096914,-0.129219,-0.258437,-0.355351,-0.323047,-0.193828
-0.257331,-0.308797,-0.128665,0.205865,-0.077199,-0.180132,0.077199,-0.102932,-0.205865,-0.283064,-0.257331,-0.154399
-0.195263,-0.234316,-0.097632,0.156210,-0.058579,-0.136684,0.058579,-0.078105,-0.156210,-0.214789,-0.195263,-0.117158
-0.177512,-0.213015,-0.088756,0.142010,-0.053254,-0.124259,0.053254,-0.071005,-0.142010,-0.195264,-0.177512,-0.106507
-0.097353,-0.116823,-0.048676,0.077882,-0.029206,-0.068147,0.029206,-0.038941,-0.077882,-0.107088,-0.097353,-0.058412
-0.078646,-0.094375,-0.039323,0.062916,-0.023594,-0.055052,0.023594,-0.031458,-0.062916,-0.086510,-0.078646,-0.047187
-0.053095,-0.063714,-0.026547,0.042476,-0.015928,-0.037166,0.015928,-0.021238,-0.042476,-0.058404,-0.053095,-0.031857
-0.010555,-0.012666,-0.005278,0.008444,-0.003167,-0.007389,0.003167,-0.004222,-0.008444,-0.011611,-0.010555,-0.006333
0.010854,0.013025,0.005427,-0.008684,0.003256,0.007598,-0.003256,0.004342,0.008684,0.011940,0.010854,0.006513
-0.018237,-0.021884,-0.009118,0.014589,-0.005471,-0.012766,0.005471,-0.007295,-0.014589,-0.020061,-0.018237,-0.010942
-0.066323,-0.079587,-0.033161,0.053058,-0.019897,-0.046426,0.019897,-0.026529,-0.053058,-0.072955,-0.066323,-0.039794
0.018301,0.021961,0.009150,-0.014640,0.005490,0.012810,-0.005490,0.007320,0.014640,0.020131,0.018301,0.010980
-0.046744,-0.056093,-0.023372,0.037395,-0.014023,-0.032721,0.014023,-0.018698,-0.037395,-0.051419,-0.046744,-0.028047
0.005247,0.006296,0.002624,-0.004198,0.001574,0.003673,-0.001574,0.002099,0.004198,0.005772,0.005247,0.003148
0.055490,0.066588,0.027745,-0.044392,0.016647,0.038843,-0.016647,0.022196,0.044392,0.061039,0.055490,0.033294
0.002290,0.002748,0.001145,-0.001832,0.000687,0.001603,-0.000687,0.000916,0.001832,0.002519,0.002290,0.001374
-0.032040,-0.038448,-0.016020,0.025632,-0.009612,-0.022428,0.009612,-0.012816,-0.025632,-0.035244,-0.032040,-0.019224
-0.039104,-0.046924,-0.019552,0.031283,-0.011731,-0.027373,0.011731,-0.015641,-0.031283,-0.043014,-0.039104,-0.023462
0.041191,0.049429,0.020595,-0.032953,0.012357,0.028834,-0.012357,0.016476,0.032953,0.045310,0.041191,0.024714
0.007229,0.008675,0.003615,-0.005783,0.002169,0.005060,-0.002169,0.002892,0.005783,0.007952,0.007229,0.004337
0.025959,0.031151,0.012980,-0.020767,0.007788,0.018171,-0.007788,0.010384,0.020767,0.028555,0.025959,0.015575
0.040011,0.048014,0.020006,-0.032009,0.012003,0.028008,-0.012003,0.016005,0.032009,0.044013,0.040011,0.024007
0.013693,0.016432,0.006847,-0.010955,0.004108,0.009585,-0.004108,0.005477,0.010955,0.015063,0.013693,0.008216
0.009392,0.011270,0.004696,-0.007513,0.002817,0.006574,-0.002817,0.003757,0.007513,0.010331,0.009392,0.005635
-0.005680,-0.006816,-0.002840,0.004544,-0.001704,-0.003976,0.001704,-0.002272,-0.004544,-0.006248,-0.005680,-0.003408
-0.064986,-0.077983,-0.032493,0.051989,-0.019496,-0.045490,0.019496,-0.025994,-0.051989,-0.071485,-0.064986,-0.038992
-0.012597,-0.015116,-0.006298,0.010077,-0.003779,-0.008818,0.003779,-0.005039,-0.010077,-0.013856,-0.012597,-0.007558
0.037052,0.044462,0.018526,-0.029641,0.011116,0.025936,-0.011116,0.014821,0.029641,0.040757,0.037052,0.022231
0.040843,0.049011,0.020421,-0.032674,0.012253,0.028590,-0.012253,0.016337,0.032674,0.044927,0.040843,0.024506
0.065939,0.079126,0.032969,-0.052751,0.019782,0.046157,-0.019782,0.026375,0.052751,0.072533,0.065939,0.039563
0.058517,0.070221,0.029259,-0.046814,0.017555,0.040962,-0.017555,0.023407,0.046814,0.064369,0.058517,0.035110
0.076301,0.091561,0.038151,-0.061041,0.022890,0.053411,-0.022890,0.030520,0.061041,0.083931,0.076301,0.045781
0.105009,0.126010,0.052504,-0.084007,0.031503,0.073506,-0.031503,0.042003,0.084007,0.115509,0.105009,0.063005
0.065237,0.078285,0.032619,-0.052190,0.019571,0.045666,-0.019571,0.026095,0.052190,0.071761,0.065237,0.039142
0.094029,0.112834,0.047014,-0.075223,0.028209,0.065820,-0.028209,0.037611,0.075223,0.103431,0.094029,0.056417
0.065576,0.078692,0.032788,-0.052461,0.019673,0.045903,-0.019673,0.026231,0.052461,0.072134,0.065576,0.039346
0.154253,0.185104,0.077127,-0.123403,0.046276,0.107977,-0.046276,0.061701,0.123403,0.169678,0.154253,0.092552
0.137425,0.164910,0.068713,-0.109940,0.041228,0.096198,-0.041228,0.054970,0.109940,0.151168,0.137425,0.082455
0.161898,0.194278,0.080949,-0.129518,0.048569,0.113329,-0.048569,0.064759,0.129518,0.178088,0.161898,0.097139
0.203916,0.244699,0.101958,-0.163132,0.061175,0.142741,-0.061175,0.081566,0.163132,0.224307,0.203916,0.122349
0.199751,0.239701,0.099875,-0.159801,0.059925,0.139825,-0.059925,0.079900,0.159801,0.219726,0.199751,0.119850
0.174356,0.209228,0.087178,-0.139485,0.052307,0.122049,-0.052307,0.069743,0.139485,0.191792,0.174356,0.104614
0.207444,0.248932,0.103722,-0.165955,0.062233,0.145210,-0.062233,0.082977,0.165955,0.228188,0.207444,0.124466
0.147199,0.176639,0.073599,-0.117759,0.044160,0.103039,-0.044160,0.058880,0.117759,0.161919,0.147199,0.088319
0.208028,0.249634,0.104014,-0.166423,0.062409,0.145620,-0.062409,0.083211,0.166423,0.228831,0.208028,0.124817
0.202442,0.242931,0.101221,-0.161954,0.060733,0.141710,-0.060733,0.080977,0.161954,0.222686,0.202442,0.121465
0.151311,0.181573,0.075656,-0.121049,0.045393,0.105918,-0.045393,0.060524,0.121049,0.166442,0.151311,0.090787
0.239846,0.287815,0.119923,-0.191877,0.071954,0.167892,-0.071954,0.095938,0.191877,0.263831,0.239846,0.143908
0.176764,0.212117,0.088382,-0.141412,0.053029,0.123735,-0.053029,0.070706,0.141412,0.194441,0.176764,0.106059
0.214897,0.257876,0.107448,-0.171918,0.064469,0.150428,-0.064469,0.085959,0.171918,0.236387,0.214897,0.128938
0.176780,0.212136,0.088390,-0.141424,0.053034,0.123746,-0.053034,0.070712,0.141424,0.194458,0.176780,0.106068
0.212791,0.255349,0.106395,-0.170232,0.063837,0.148953,-0.063837,0.085116,0.170232,0.234070,0.212791,0.127674
0.214809,0.257771,0.107404,-0.171847,0.064443,0.150366,-0.064443,0.085924,0.171847,0.236290,0.214809,0.128885
0.142127,0.170552,0.071063,-0.113701,0.042638,0.099489,-0.042638,0.056851,0.113701,0.156339,0.142127,0.085276
0.112177,0.134613,0.056089,-0.089742,0.033653,0.078524,-0.033653,0.044871,0.089742,0.123395,0.112177,0.067306
0.145092,0.174111,0.072546,-0.116074,0.043528,0.101565,-0.043528,0.058037,0.116074,0.159602,0.145092,0.087055
0.165804,0.198965,0.082902,-0.132644,0.049741,0.116063,-0.049741,0.066322,0.132644,0.182385,0.165804,0.099483
0.121383,0.145660,0.060692,-0.097107,0.036415,0.084968,-0.036415,0.048553,0.097107,0.133522,0.121383,0.072830
0.107740,0.129288,0.053870,-0.086192,0.032322,0.075418,-0.032322,0.043096,0.086192,0.118514,0.107740,0.064644
0.136395,0.163674,0.068198,-0.109116,0.040919,0.095477,-0.040919,0.054558,0.109116,0.150035,0.136395,0.081837
0.036941,0.044329,0.018470,-0.029553,0.011082,0.025859,-0.011082,0.014776,0.029553,0.040635,0.036941,0.022165
0.100632,0.120758,0.050316,-0.080506,0.030190,0.070442,-0.030190,0.040253,0.080506,0.110695,0.100632,0.060379
0.082664,0.099197,0.041332,-0.066131,0.024799,0.057865,-0.024799,0.033066,0.066131,0.090930,0.082664,0.049598
0.139206,0.167047,0.069603,-0.111365,0.041762,0.097444,-0.041762,0.055682,0.111365,0.153126,0.139206,0.083523
0.116450,0.139740,0.058225,-0.093160,0.034935,0.081515,-0.034935,0.046580,0.093160,0.128095,0.116450,0.069870
0.114330,0.137195,0.057165,-0.091464,0.034299,0.080031,-0.034299,0.045732,0.091464,0.125762,0.114330,0.068598
0.146301,0.175561,0.073150,-0.117040,0.043890,0.102410,-0.043890,0.058520,0.117040,0.160931,0.146301,0.087780
0.120562,0.144674,0.060281,-0.096449,0.036169,0.084393,-0.036169,0.048225,0.096449,0.132618,0.120562,0.072337
0.169216,0.203059,0.084608,-0.135372,0.050765,0.118451,-0.050765,0.067686,0.135372,0.186137,0.169216,0.101529
0.150394,0.180472,0.075197,-0.120315,0.045118,0.105276,-0.045118,0.060157,0.120315,0.165433,0.150394,0.090236
0.156418,0.187701,0.078209,-0.125134,0.046925,0.109492,-0.046925,0.062567,0.125134,0.172059,0.156418,0.093851
0.138578,0.166293,0.069289,-0.110862,0.041573,0.097004,-0.041573,0.055431,0.110862,0.152436,0.138578,0.083147
0.175661,0.210793,0.087830,-0.140528,0.052698,0.122962,-0.052698,0.070264,0.140528,0.193227,0.175661,0.105396
0.129894,0.155873,0.064947,-0.103916,0.038968,0.090926,-0.038968,0.051958,0.103916,0.142884,0.129894,0.077937
0.131553,0.157864,0.065777,-0.105243,0.039466,0.092087,-0.039466,0.052621,0.105243,0.144709,0.131553,0.078932
0.111911,0.134293,0.055955,-0.089529,0.033573,0.078337,-0.033573,0.044764,0.089529,0.123102,0.111911,0.067146
0.055272,0.066326,0.027636,-0.044218,0.016582,0.038690,-0.016582,0.022109,0.044218,0.060799,0.055272,0.033163
0.079735,0.095682,0.039868,-0.063788,0.023921,0.055815,-0.023921,0.031894,0.063788,0.087709,0.079735,0.047841
0.058240,0.069888,0.029120,-0.046592,0.017472,0.040768,-0.017472,0.023296,0.046592,0.064064,0.058240,0.034944
0.044649,0.053579,0.022324,-0.035719,0.013395,0.031254,-0.013395,0.017860,0.035719,0.049114,0.044649,0.026789
0.013192,0.015831,0.006596,-0.010554,0.003958,0.009235,-0.003958,0.005277,0.010554,0.014512,0.013192,0.007915
0.004569,0.005482,0.002284,-0.003655,0.001371,0.003198,-0.001371,0.001827,0.003655,0.005026,0.004569,0.002741
0.035181,0.042217,0.017591,-0.028145,0.010554,0.024627,-0.010554,0.014072,0.028145,0.038699,0.035181,0.021109
0.072964,0.087557,0.036482,-0.058371,0.021889,0.051075,-0.021889,0.029186,0.058371,0.080260,0.072964,0.043778
-0.020264,-0.024317,-0.010132,0.016211,-0.006079,-0.014185,0.006079,-0.008106,-0.016211,-0.022290,-0.020264,-0.012158
0.018609,0.022331,0.009304,-0.014887,0.005583,0.013026,-0.005583,0.007444,0.014887,0.020470,0.018609,0.011165
-0.010226,-0.012271,-0.005113,0.008181,-0.003068,-0.007158,0.003068,-0.004090,-0.008181,-0.011249,-0.010226,-0.006136
0.021947,0.026336,0.010973,-0.017557,0.006584,0.015363,-0.006584,0.008779,0.017557,0.024141,0.021947,0.013168
0.007456,0.008947,0.003728,-0.005965,0.002237,0.005219,-0.002237,0.002982,0.005965,0.008202,0.007456,0.004474
0.018738,0.022485,0.009369,-0.014990,0.005621,0.013117,-0.005621,0.007495,0.014990,0.020612,0.018738,0.011243
-0.109013,-0.130815,-0.054506,0.087210,-0.032704,-0.076309,0.032704,-0.043605,-0.087210,-0.119914,-0.109013,-0.065408
-0.060441,-0.072529,-0.030220,0.048353,-0.018132,-0.042309,0.018132,-0.024176,-0.048353,-0.066485,-0.060441,-0.036264
-0.092713,-0.111256,-0.046357,0.074171,-0.027814,-0.064899,0.027814,-0.037085,-0.074171,-0.101985,-0.092713,-0.055628
-0.086204,-0.103445,-0.043102,0.068963,-0.025861,-0.060343,0.025861,-0.034482,-0.068963,-0.094825,-0.086204,-0.051723
-0.118294,-0.141953,-0.059147,0.094635,-0.035488,-0.082806,0.035488,-0.047318,-0.094635,-0.130123,-0.118294,-0.070976
-0.118605,-0.142326,-0.059303,0.094884,-0.035582,-0.083024,0.035582,-0.047442,-0.094884,-0.130466,-0.118605,-0.071163
-0.069318,-0.083182,-0.034659,0.055454,-0.020795,-0.048523,0.020795,-0.027727,-0.055454,-0.076250,-0.069318,-0.041591
-0.011614,-0.013937,-0.005807,0.009292,-0.003484,-0.008130,0.003484,-0.004646,-0.009292,-0.012776,-0.011614,-0.006969
-0.120133,-0.144160,-0.060067,0.096107,-0.036040,-0.084093,0.036040,-0.048053,-0.096107,-0.132147,-0.120133,-0.072080
0.009596,0.011515,0.004798,-0.007677,0.002879,0.006717,-0.002879,0.003838,0.007677,0.010556,0.009596,0.005758
0.126210,0.151452,0.063105,-0.100968,0.037863,0.088347,-0.037863,0.050484,0.100968,0.138831,0.126210,0.075726
0.290912,0.349095,0.145456,-0.232730,0.087274,0.203639,-0.087274,0.116365,0.232730,0.320003,0.290912,0.174547
0.552201,0.662641,0.276100,-0.441760,0.165660,0.386540,-0.165660,0.220880,0.441760,0.607421,0.552201,0.331320
0.870624,1.044749,0.435312,-0.696499,0.261187,0.609437,-0.261187,0.348250,0.696499,0.957687,0.870624,0.522375
1.225574,1.470688,0.612787,-0.980459,0.367672,0.857902,-0.367672,0.490229,0.980459,1.348131,1.225574,0.735344
1.492075,1.790490,0.746037,-1.193660,0.447622,1.044452,-0.447622,0.596830,1.193660,1.641282,1.492075,0.895245
1.502718,1.803262,0.751359,-1.202175,0.450815,1.051903,-0.450815,0.601087,1.202175,1.652990,1.502718,0.901631
1.257278,1.508734,0.628639,-1.005823,0.377184,0.880095,-0.377184,0.502911,1.005823,1.383006,1.257278,0.754367
0.887671,1.065206,0.443836,-0.710137,0.266301,0.621370,-0.266301,0.355069,0.710137,0.976438,0.887671,0.532603
0.569272,0.683126,0.284636,-0.455417,0.170782,0.398490,-0.170782,0.227709,0.455417,0.626199,0.569272,0.341563
0.292018,0.350422,0.146009,-0.233615,0.087606,0.204413,-0.087606,0.116807,0.233615,0.321220,0.292018,0.175211
0.149307,0.179169,0.074654,-0.119446,0.044792,0.104515,-0.044792,0.059723,0.119446,0.164238,0.149307,0.089584
0.048606,0.058327,0.024303,-0.038884,0.014582,0.034024,-0.014582,0.019442,0.038884,0.053466,0.048606,0.029163
-0.018993,-0.022792,-0.009497,0.015195,-0.005698,-0.013295,0.005698,-0.007597,-0.015195,-0.020893,-0.018993,-0.011396
-0.027306,-0.032767,-0.013653,0.021845,-0.008192,-0.019114,0.008192,-0.010922,-0.021845,-0.030036,-0.027306,-0.016383
-0.106643,-0.127971,-0.053321,0.085314,-0.031993,-0.074650,0.031993,-0.042657,-0.085314,-0.117307,-0.106643,-0.063986
-0.097858,-0.117430,-0.048929,0.078287,-0.029358,-0.068501,0.029358,-0.039143,-0.078287,-0.107644,-0.097858,-0.058715
-0.148559,-0.178271,-0.074279,0.118847,-0.044568,-0.103991,0.044568,-0.059424,-0.118847,-0.163415,-0.148559,-0.089135
-0.279857,-0.335828,-0.139929,0.223886,-0.083957,-0.195900,0.083957,-0.111943,-0.223886,-0.307843,-0.279857,-0.167914
-0.274944,-0.329933,-0.137472,0.219955,-0.082483,-0.192461,0.082483,-0.109978,-0.219955,-0.302439,-0.274944,-0.164967
-0.329213,-0.395056,-0.164607,0.263371,-0.098764,-0.230449,0.098764,-0.131685,-0.263371,-0.362135,-0.329213,-0.197528
-0.243979,-0.292775,-0.121990,0.195183,-0.073194,-0.170785,0.073194,-0.097592,-0.195183,-0.268377,-0.243979,-0.146388
-0.198300,-0.237960,-0.099150,0.158640,-0.059490,-0.138810,0.059490,-0.079320,-0.158640,-0.218130,-0.198300,-0.118980
-0.169832,-0.203799,-0.084916,0.135866,-0.050950,-0.118883,0.050950,-0.067933,-0.135866,-0.186816,-0.169832,-0.101899
-0.074389,-0.089267,-0.037195,0.059511,-0.022317,-0.052073,0.022317,-0.029756,-0.059511,-0.081828,-0.074389,-0.044634
-0.071935,-0.086321,-0.035967,0.057548,-0.021580,-0.050354,0.021580,-0.028774,-0.057548,-0.079128,-0.071935,-0.043161
-0.048787,-0.058544,-0.024393,0.039029,-0.014636,-0.034151,0.014636,-0.019515,-0.039029,-0.053665,-0.048787,-0.029272
-0.030002,-0.036002,-0.015001,0.024002,-0.009001,-0.021001,0.009001,-0.012001,-0.024002,-0.033002,-0.030002,-0.018001
-0.009074,-0.010888,-0.004537,0.007259,-0.002722,-0.006352,0.002722,-0.003629,-0.007259,-0.009981,-0.009074,-0.005444
-0.011040,-0.013249,-0.005520,0.008832,-0.003312,-0.007728,0.003312,-0.004416,-0.008832,-0.012144,-0.011040,-0.006624
0.004718,0.005661,0.002359,-0.003774,0.001415,0.003302,-0.001415,0.001887,0.003774,0.005189,0.004718,0.002831
-0.017725,-0.021270,-0.008862,0.014180,-0.005317,-0.012407,0.005317,-0.007090,-0.014180,-0.019497,-0.017725,-0.010635
0.024093,0.028912,0.012047,-0.019275,0.007228,0.016865,-0.007228,0.009637,0.019275,0.026503,0.024093,0.014456
0.032216,0.038659,0.016108,-0.025773,0.009665,0.022551,-0.009665,0.012886,0.025773,0.035438,0.032216,0.019330
-0.012757,-0.015308,-0.006378,0.010205,-0.003827,-0.008930,0.003827,-0.005103,-0.010205,-0.014032,-0.012757,-0.007654
-0.040020,-0.048024,-0.020010,0.032016,-0.012006,-0.028014,0.012006,-0.016008,-0.032016,-0.044022,-0.040020,-0.024012
0.025369,0.030442,0.012684,-0.020295,0.007611,0.017758,-0.007611,0.010147,0.020295,0.027905,0.025369,0.015221
0.038888,0.046666,0.019444,-0.031111,0.011667,0.027222,-0.011667,0.015555,0.031111,0.042777,0.038888,0.023333
0.001180,0.001415,0.000590,-0.000944,0.000354,0.000826,-0.000354,0.000472,0.000944,0.001297,0.001180,0.000708
-0.030858,-0.037030,-0.015429,0.024686,-0.009257,-0.021601,0.009257,-0.012343,-0.024686,-0.033944,-0.030858,-0.018515
0.017770,0.021324,0.008885,-0.014216,0.005331,0.012439,-0.005331,0.007108,0.014216,0.019547,0.017770,0.010662
0.057962,0.069555,0.028981,-0.046370,0.017389,0.040574,-0.017389,0.023185,0.046370,0.063759,0.057962,0.034777
-0.041127,-0.049352,-0.020563,0.032901,-0.012338,-0.028789,0.012338,-0.016451,-0.032901,-0.045239,-0.041127,-0.024676
0.032988,0.039585,0.016494,-0.026390,0.009896,0.023091,-0.009896,0.013195,0.026390,0.036286,0.032988,0.019793
0.013331,0.015998,0.006666,-0.010665,0.003999,0.009332,-0.003999,0.005333,0.010665,0.014664,0.013331,0.007999
0.001819,0.002183,0.000909,-0.001455,0.000546,0.001273,-0.000546,0.000728,0.001455,0.002001,0.001819,0.001091
0.047889,0.057467,0.023945,-0.038311,0.014367,0.033523,-0.014367,0.019156,0.038311,0.052678,0.047889,0.028734
0.000175,0.000210,0.000087,-0.000140,0.000052,0.000122,-0.000052,0.000070,0.000140,0.000192,0.000175,0.000105
0.055009,0.066011,0.027505,-0.044007,0.016503,0.038506,-0.016503,0.022004,0.044007,0.060510,0.055009,0.033005
0.093230,0.111876,0.046615,-0.074584,0.027969,0.065261,-0.027969,0.037292,0.074584,0.102553,0.093230,0.055938
0.067619,0.081143,0.033809,-0.054095,0.020286,0.047333,-0.020286,0.027048,0.054095,0.074381,0.067619,0.040571
0.045231,0.054277,0.022615,-0.036185,0.013569,0.031662,-0.013569,0.018092,0.036185,0.049754,0.045231,0.027138
0.027995,0.033594,0.013998,-0.022396,0.008399,0.019597,-0.008399,0.011198,0.022396,0.030795,0.027995,0.016797
0.053330,0.063996,0.026665,-0.042664,0.015999,0.037331,-0.015999,0.021332,0.042664,0.058663,0.053330,0.031998
0.047407,0.056888,0.023703,-0.037925,0.014222,0.033185,-0.014222,0.018963,0.037925,0.052147,0.047407,0.028444
0.161782,0.194138,0.080891,-0.129425,0.048535,0.113247,-0.048535,0.064713,0.129425,0.177960,0.161782,0.097069
0.117582,0.141098,0.058791,-0.094065,0.035275,0.082307,-0.035275,0.047033,0.094065,0.129340,0.117582,0.070549
0.104918,0.125901,0.052459,-0.083934,0.031475,0.073442,-0.031475,0.041967,0.083934,0.115409,0.104918,0.062951
0.108257,0.129909,0.054129,-0.086606,0.032477,0.075780,-0.032477,0.043303,0.086606,0.119083,0.108257,0.064954
0.125624,0.150748,0.062812,-0.100499,0.037687,0.087937,-0.037687,0.050249,0.100499,0.138186,0.125624,0.075374
0.157289,0.188747,0.078645,-0.125831,0.047187,0.110102,-0.047187,0.062916,0.125831,0.173018,0.157289,0.094373
0.137678,0.165214,0.068839,-0.110142,0.041303,0.096375,-0.041303,0.055071,0.110142,0.151446,0.137678,0.082607
0.234102,0.280923,0.117051,-0.187282,0.070231,0.163872,-0.070231,0.093641,0.187282,0.257512,0.234102,0.140461
0.167728,0.201274,0.083864,-0.134183,0.050318,0.117410,-0.050318,0.067091,0.134183,0.184501,0.167728,0.100637
0.171534,0.205840,0.085767,-0.137227,0.051460,0.120074,-0.051460,0.068613,0.137227,0.188687,0.171534,0.102920
0.207508,0.249009,0.103754,-0.166006,0.062252,0.145255,-0.062252,0.083003,0.166006,0.228258,0.207508,0.124505
0.243377,0.292052,0.121688,-0.194701,0.073013,0.170364,-0.073013,0.097351,0.194701,0.267714,0.243377,0.146026
0.239446,0.287335,0.119723,-0.191557,0.071834,0.167612,-0.071834,0.095778,0.191557,0.263390,0.239446,0.143667
0.183252,0.219903,0.091626,-0.146602,0.054976,0.128277,-0.054976,0.073301,0.146602,0.201577,0.183252,0.109951
0.202063,0.242476,0.101031,-0.161650,0.060619,0.141444,-0.060619,0.080825,0.161650,0.222269,0.202063,0.121238
0.193857,0.232628,0.096928,-0.155085,0.058157,0.135700,-0.058157,0.077543,0.155085,0.213242,0.193857,0.116314
0.198881,0.238657,0.099441,-0.159105,0.059664,0.139217,-0.059664,0.079552,0.159105,0.218769,0.198881,0.119329
0.183112,0.219735,0.091556,-0.146490,0.054934,0.128178,-0.054934,0.073245,0.146490,0.201423,0.183112,0.109867
0.138713,0.166456,0.069357,-0.110971,0.041614,0.097099,-0.041614,0.055485,0.110971,0.152585,0.138713,0.083228
0.120284,0.144340,0.060142,-0.096227,0.036085,0.084199,-0.036085,0.048113,0.096227,0.132312,0.120284,0.072170
0.154304,0.185165,0.077152,-0.123443,0.046291,0.108013,-0.046291,0.061722,0.123443,0.169735,0.154304,0.092583
0.104831,0.125797,0.052415,-0.083865,0.031449,0.073382,-0.031449,0.041932,0.083865,0.115314,0.104831,0.062898
0.173419,0.208103,0.086710,-0.138736,0.052026,0.121394,-0.052026,0.069368,0.138736,0.190761,0.173419,0.104052
0.127344,0.152813,0.063672,-0.101875,0.038203,0.089141,-0.038203,0.050938,0.101875,0.140078,0.127344,0.076406
0.090964,0.109157,0.045482,-0.072771,0.027289,0.063675,-0.027289,0.036386,0.072771,0.100061,0.090964,0.054579
0.110137,0.132165,0.055069,-0.088110,0.033041,0.077096,-0.033041,0.044055,0.088110,0.121151,0.110137,0.066082
0.105354,0.126425,0.052677,-0.084283,0.031606,0.073748,-0.031606,0.042142,0.084283,0.115890,0.105354,0.063213
0.120241,0.144289,0.060120,-0.096192,0.036072,0.084168,-0.036072,0.048096,0.096192,0.132265,0.120241,0.072144
0.158737,0.190484,0.079368,-0.126989,0.047621,0.111116,-0.047621,0.063495,0.126989,0.174610,0.158737,0.095242
0.095205,0.114246,0.047602,-0.076164,0.028561,0.066643,-0.028561,0.038082,0.076164,0.104725,0.095205,0.057123
0.091757,0.110109,0.045879,-0.073406,0.027527,0.064230,-0.027527,0.036703,0.073406,0.100933,0.091757,0.055054
0.167057,0.200468,0.083529,-0.133646,0.050117,0.116940,-0.050117,0.066823,0.133646,0.183763,0.167057,0.100234
0.159295,0.191155,0.079648,-0.127436,0.047789,0.111507,-0.047789,0.063718,0.127436,0.175225,0.159295,0.095577
0.174506,0.209407,0.087253,-0.139605,0.052352,0.122154,-0.052352,0.069802,0.139605,0.191957,0.174506,0.104704
0.184201,0.221042,0.092101,-0.147361,0.055260,0.128941,-0.055260,0.073681,0.147361,0.202621,0.184201,0.110521
0.162309,0.194770,0.081154,-0.129847,0.048693,0.113616,-0.048693,0.064923,0.129847,0.178540,0.162309,0.097385
0.184083,0.220899,0.092041,-0.147266,0.055225,0.128858,-0.055225,0.073633,0.147266,0.202491,0.184083,0.110450
0.121503,0.145803,0.060751,-0.097202,0.036451,0.085052,-0.036451,0.048601,0.097202,0.133653,0.121503,0.072902
0.135091,0.162110,0.067546,-0.108073,0.040527,0.094564,-0.040527,0.054037,0.108073,0.148600,0.135091,0.081055
0.090895,0.109074,0.045447,-0.072716,0.027268,0.063626,-0.027268,0.036358,0.072716,0.099984,0.090895,0.054537
0.063620,0.076344,0.031810,-0.050896,0.019086,0.044534,-0.019086,0.025448,0.050896,0.069982,0.063620,0.038172
0.097920,0.117504,0.048960,-0.078336,0.029376,0.068544,-0.029376,0.039168,0.078336,0.107712,0.097920,0.058752
0.079708,0.095649,0.039854,-0.063766,0.023912,0.055795,-0.023912,0.031883,0.063766,0.087679,0.079708,0.047825
-0.010493,-0.012591,-0.005246,0.008394,-0.003148,-0.007345,0.003148,-0.004197,-0.008394,-0.011542,-0.010493,-0.006296
0.001580,0.001895,0.000790,-0.001264,0.000474,0.001106,-0.000474,0.000632,0.001264,0.001737,0.001580,0.000948
0.033913,0.040695,0.016956,-0.027130,0.010174,0.023739,-0.010174,0.013565,0.027130,0.037304,0.033913,0.020348
0.049481,0.059377,0.024740,-0.039585,0.014844,0.034637,-0.014844,0.019792,0.039585,0.054429,0.049481,0.029689
-0.008364,-0.010037,-0.004182,0.006691,-0.002509,-0.005855,0.002509,-0.003346,-0.006691,-0.009201,-0.008364,-0.005019
0.001991,0.002389,0.000995,-0.001593,0.000597,0.001394,-0.000597,0.000796,0.001593,0.002190,0.001991,0.001195
-0.037760,-0.045313,-0.018880,0.030208,-0.011328,-0.026432,0.011328,-0.015104,-0.030208,-0.041537,-0.037760,-0.022656
0.077900,0.093480,0.038950,-0.062320,0.023370,0.054530,-0.023370,0.031160,0.062320,0.085690,0.077900,0.046740
0.015015,0.018018,0.007508,-0.012012,0.004505,0.010511,-0.004505,0.006006,0.012012,0.016517,0.015015,0.009009
0.025239,0.030287,0.012620,-0.020191,0.007572,0.017667,-0.007572,0.010096,0.020191,0.027763,0.025239,0.015144
0.014047,0.016857,0.007024,-0.011238,0.004214,0.009833,-0.004214,0.005619,0.011238,0.015452,0.014047,0.008428
0.014931,0.017918,0.007466,-0.011945,0.004479,0.010452,-0.004479,0.005973,0.011945,0.016425,0.014931,0.008959
-0.006926,-0.008312,-0.003463,0.005541,-0.002078,-0.004849,0.002078,-0.002771,-0.005541,-0.007619,-0.006926,-0.004156
-0.052464,-0.062957,-0.026232,0.041971,-0.015739,-0.036725,0.015739,-0.020986,-0.041971,-0.057710,-0.052464,-0.031478
-0.040747,-0.048897,-0.020374,0.032598,-0.012224,-0.028523,0.012224,-0.016299,-0.032598,-0.044822,-0.040747,-0.024448
-0.080591,-0.096709,-0.040295,0.064472,-0.024177,-0.056413,0.024177,-0.032236,-0.064472,-0.088650,-0.080591,-0.048354
-0.057681,-0.069217,-0.028840,0.046145,-0.017304,-0.040377,0.017304,-0.023072,-0.046145,-0.063449,-0.057681,-0.034608
-0.121442,-0.145731,-0.060721,0.097154,-0.036433,-0.085010,0.036433,-0.048577,-0.097154,-0.133587,-0.121442,-0.072865
-0.106012,-0.127214,-0.053006,0.084809,-0.031803,-0.074208,0.031803,-0.042405,-0.084809,-0.116613,-0.106012,-0.063607
-0.048838,-0.058605,-0.024419,0.039070,-0.014651,-0.034186,0.014651,-0.019535,-0.039070,-0.053721,-0.048838,-0.029303
0.002971,0.003565,0.001485,-0.002377,0.000891,0.002080,-0.000891,0.001188,0.002377,0.003268,0.002971,0.001782
0.023265,0.027918,0.011632,-0.018612,0.006979,0.016285,-0.006979,0.009306,0.018612,0.025591,0.023265,0.013959
0.095473,0.114567,0.047736,-0.076378,0.028642,0.066831,-0.028642,0.038189,0.076378,0.105020,0.095473,0.057284
0.287202,0.344642,0.143601,-0.229761,0.086160,0.201041,-0.086160,0.114881,0.229761,0.315922,0.287202,0.172321
0.547608,0.657130,0.273804,-0.438086,0.164282,0.383326,-0.164282,0.219043,0.438086,0.602369,0.547608,0.328565
0.968133,1.161760,0.484067,-0.774507,0.290440,0.677693,-0.290440,0.387253,0.774507,1.064947,0.968133,0.580880
1.280815,1.536978,0.640408,-1.024652,0.384245,0.896571,-0.384245,0.512326,1.024652,1.408897,1.280815,0.768489
1.508259,1.809910,0.754129,-1.206607,0.452478,1.055781,-0.452478,0.603303,1.206607,1.659084,1.508259,0.904955
1.479492,1.775390,0.739746,-1.183593,0.443847,1.035644,-0.443847,0.591797,1.183593,1.627441,1.479492,0.887695
1.237724,1.485269,0.618862,-0.990180,0.371317,0.866407,-0.371317,0.495090,0.990180,1.361497,1.237724,0.742635
0.947954,1.137545,0.473977,-0.758364,0.284386,0.663568,-0.284386,0.379182,0.758364,1.042750,0.947954,0.568773
0.616019,0.739223,0.308009,-0.492815,0.184806,0.431213,-0.184806,0.246408,0.492815,0.677621,0.616019,0.369611
0.316678,0.380014,0.158339,-0.253343,0.095004,0.221675,-0.095004,0.126671,0.253343,0.348346,0.316678,0.190007
0.132212,0.158654,0.066106,-0.105769,0.039663,0.092548,-0.039663,0.052885,0.105769,0.145433,0.132212,0.079327
0.077486,0.092983,0.038743,-0.061989,0.023246,0.054240,-0.023246,0.030994,0.061989,0.085234,0.077486,0.046491
-0.011473,-0.013768,-0.005737,0.009179,-0.003442,-0.008031,0.003442,-0.004589,-0.009179,-0.012621,-0.011473,-0.006884
-0.010090,-0.012108,-0.005045,0.008072,-0.003027,-0.007063,0.003027,-0.004036,-0.008072,-0.011099,-0.010090,-0.006054
-0.092608,-0.111130,-0.046304,0.074087,-0.027782,-0.064826,0.027782,-0.037043,-0.074087,-0.101869,-0.092608,-0.055565
-0.151570,-0.181884,-0.075785,0.121256,-0.045471,-0.106099,0.045471,-0.060628,-0.121256,-0.166727,-0.151570,-0.090942
-0.167036,-0.200443,-0.083518,0.133628,-0.050111,-0.116925,0.050111,-0.066814,-0.133628,-0.183739,-0.167036,-0.100221
-0.234364,-0.281237,-0.117182,0.187491,-0.070309,-0.164055,0.070309,-0.093746,-0.187491,-0.257800,-0.234364,-0.140618
-0.230446,-0.276536,-0.115223,0.184357,-0.069134,-0.161312,0.069134,-0.092179,-0.184357,-0.253491,-0.230446,-0.138268
-0.307879,-0.369454,-0.153939,0.246303,-0.092364,-0.215515,0.092364,-0.123151,-0.246303,-0.338666,-0.307879,-0.184727
-0.275426,-0.330512,-0.137713,0.220341,-0.082628,-0.192798,0.082628,-0.110171,-0.220341,-0.302969,-0.275426,-0.165256
-0.259622,-0.311546,-0.129811,0.207697,-0.077887,-0.181735,0.077887,-0.103849,-0.207697,-0.285584,-0.259622,-0.155773
-0.219006,-0.262807,-0.109503,0.175204,-0.065702,-0.153304,0.065702,-0.087602,-0.175204,-0.240906,-0.219006,-0.131403
-0.157662,-0.189194,-0.078831,0.126129,-0.047299,-0.110363,0.047299,-0.063065,-0.126129,-0.173428,-0.157662,-0.094597
-0.045109,-0.054130,-0.022554,0.036087,-0.013533,-0.031576,0.013533,-0.018043,-0.036087,-0.049619,-0.045109,-0.027065
-0.064796,-0.077755,-0.032398,0.051836,-0.019439,-0.045357,0.019439,-0.025918,-0.051836,-0.071275,-0.064796,-0.038877
0.020863,0.025036,0.010432,-0.016691,0.006259,0.014604,-0.006259,0.008345,0.016691,0.022950,0.020863,0.012518
0.037820,0.045384,0.018910,-0.030256,0.011346,0.026474,-0.011346,0.015128,0.030256,0.041602,0.037820,0.022692
-0.009900,-0.011880,-0.004950,0.007920,-0.002970,-0.006930,0.002970,-0.003960,-0.007920,-0.010890,-0.009900,-0.005940
0.049840,0.059808,0.024920,-0.039872,0.014952,0.034888,-0.014952,0.019936,0.039872,0.054824,0.049840,0.029904
0.007543,0.009052,0.003772,-0.006034,0.002263,0.005280,-0.002263,0.003017,0.006034,0.008297,0.007543,0.004526
0.034901,0.041881,0.017451,-0.027921,0.010470,0.024431,-0.010470,0.013960,0.027921,0.038391,0.034901,0.020941
-0.005184,-0.006221,-0.002592,0.004147,-0.001555,-0.003629,0.001555,-0.002074,-0.004147,-0.005703,-0.005184,-0.003110
0.030894,0.037073,0.015447,-0.024715,0.009268,0.021626,-0.009268,0.012358,0.024715,0.033984,0.030894,0.018537
-0.025505,-0.030606,-0.012752,0.020404,-0.007651,-0.017853,0.007651,-0.010202,-0.020404,-0.028055,-0.025505,-0.015303
0.022333,0.026799,0.011166,-0.017866,0.006700,0.015633,-0.006700,0.008933,0.017866,0.024566,0.022333,0.013400
-0.009045,-0.010854,-0.004522,0.007236,-0.002713,-0.006331,0.002713,-0.003618,-0.007236,-0.009949,-0.009045,-0.005427
0.002160,0.002592,0.001080,-0.001728,0.000648,0.001512,-0.000648,0.000864,0.001728,0.002376,0.002160,0.001296
0.026689,0.032027,0.013345,-0.021351,0.008007,0.018682,-0.008007,0.010676,0.021351,0.029358,0.026689,0.016013
0.014948,0.017938,0.007474,-0.011959,0.004484,0.010464,-0.004484,0.005979,0.011959,0.016443,0.014948,0.008969
0.009991,0.011989,0.004996,-0.007993,0.002997,0.006994,-0.002997,0.003996,0.007993,0.010990,0.009991,0.005995
0.036997,0.044396,0.018498,-0.029597,0.011099,0.025898,-0.011099,0.014799,0.029597,0.040696,0.036997,0.022198
0.042746,0.051295,0.021373,-0.034197,0.012824,0.029922,-0.012824,0.017098,0.034197,0.047021,0.042746,0.025648
-0.018810,-0.022572,-0.009405,0.015048,-0.005643,-0.013167,0.005643,-0.007524,-0.015048,-0.020691,-0.018810,-0.011286
0.044257,0.053109,0.022129,-0.035406,0.013277,0.030980,-0.013277,0.017703,0.035406,0.048683,0.044257,0.026554
0.053073,0.063688,0.026537,-0.042459,0.015922,0.037151,-0.015922,0.021229,0.042459,0.058381,0.053073,0.031844
0.016588,0.019906,0.008294,-0.013270,0.004976,0.011612,-0.004976,0.006635,0.013270,0.018247,0.016588,0.009953
0.057675,0.069210,0.028837,-0.046140,0.017302,0.040372,-0.017302,0.023070,0.046140,0.063442,0.057675,0.034605
0.014105,0.016926,0.007052,-0.011284,0.004231,0.009873,-0.004231,0.005642,0.011284,0.015515,0.014105,0.008463
0.105498,0.126597,0.052749,-0.084398,0.031649,0.073848,-0.031649,0.042199,0.084398,0.116048,0.105498,0.063299
0.064391,0.077269,0.032195,-0.051513,0.019317,0.045074,-0.019317,0.025756,0.051513,0.070830,0.064391,0.038635
0.079018,0.094821,0.039509,-0.063214,0.023705,0.055312,-0.023705,0.031607,0.063214,0.086920,0.079018,0.047411
0.127710,0.153252,0.063855,-0.102168,0.038313,0.089397,-0.038313,0.051084,0.102168,0.140481,0.127710,0.076626
0.098361,0.118033,0.049181,-0.078689,0.029508,0.068853,-0.029508,0.039344,0.078689,0.108197,0.098361,0.059017
0.131759,0.158111,0.065880,-0.105408,0.039528,0.092232,-0.039528,0.052704,0.105408,0.144935,0.131759,0.079056
0.093644,0.112373,0.046822,-0.074915,0.028093,0.065551,-0.028093,0.037458,0.074915,0.103009,0.093644,0.056187
0.119180,0.143016,0.059590,-0.095344,0.035754,0.083426,-0.035754,0.047672,0.095344,0.131098,0.119180,0.071508
0.105430,0.126516,0.052715,-0.084344,0.031629,0.073801,-0.031629,0.042172,0.084344,0.115973,0.105430,0.063258
0.151396,0.181675,0.075698,-0.121117,0.045419,0.105977,-0.045419,0.060558,0.121117,0.166535,0.151396,0.090837
0.198296,0.237955,0.099148,-0.158637,0.059489,0.138807,-0.059489,0.079318,0.158637,0.218125,0.198296,0.118977
0.182865,0.219438,0.091433,-0.146292,0.054860,0.128006,-0.054860,0.073146,0.146292,0.201152,0.182865,0.109719
0.210343,0.252411,0.105171,-0.168274,0.063103,0.147240,-0.063103,0.084137,0.168274,0.231377,0.210343,0.126206
0.159367,0.191241,0.079684,-0.127494,0.047810,0.111557,-0.047810,0.063747,0.127494,0.175304,0.159367,0.095620
0.168522,0.202226,0.084261,-0.134818,0.050557,0.117965,-0.050557,0.067409,0.134818,0.185374,0.168522,0.101113
0.184325,0.221190,0.092163,-0.147460,0.055298,0.129028,-0.055298,0.073730,0.147460,0.202758,0.184325,0.110595
0.217071,0.260486,0.108536,-0.173657,0.065121,0.151950,-0.065121,0.086829,0.173657,0.238779,0.217071,0.130243
0.210491,0.252589,0.105246,-0.168393,0.063147,0.147344,-0.063147,0.084196,0.168393,0.231540,0.210491,0.126295
0.197569,0.237083,0.098785,-0.158056,0.059271,0.138299,-0.059271,0.079028,0.158056,0.217326,0.197569,0.118542
0.213347,0.256017,0.106674,-0.170678,0.064004,0.149343,-0.064004,0.085339,0.170678,0.234682,0.213347,0.128008
0.185326,0.222392,0.092663,-0.148261,0.055598,0.129728,-0.055598,0.074131,0.148261,0.203859,0.185326,0.111196
0.183203,0.219844,0.091602,-0.146563,0.054961,0.128242,-0.054961,0.073281,0.146563,0.201524,0.183203,0.109922
0.216054,0.259265,0.108027,-0.172843,0.064816,0.151238,-0.064816,0.086422,0.172843,0.237659,0.216054,0.129632
0.151839,0.182207,0.075920,-0.121472,0.045552,0.106288,-0.045552,0.060736,0.121472,0.167023,0.151839,0.091104
0.167344,0.200813,0.083672,-0.133876,0.050203,0.117141,-0.050203,0.066938,0.133876,0.184079,0.167344,0.100407
0.203104,0.243725,0.101552,-0.162483,0.060931,0.142173,-0.060931,0.081242,0.162483,0.223415,0.203104,0.121863
0.151700,0.182040,0.075850,-0.121360,0.045510,0.106190,-0.045510,0.060680,0.121360,0.166870,0.151700,0.091020
0.165320,0.198384,0.082660,-0.132256,0.049596,0.115724,-0.049596,0.066128,0.132256,0.181852,0.165320,0.099192
0.123488,0.148186,0.061744,-0.098791,0.037046,0.086442,-0.037046,0.049395,0.098791,0.135837,0.123488,0.074093
0.200388,0.240466,0.100194,-0.160310,0.060116,0.140272,-0.060116,0.080155,0.160310,0.220427,0.200388,0.120233
0.076768,0.092122,0.038384,-0.061415,0.023030,0.053738,-0.023030,0.030707,0.061415,0.084445,0.076768,0.046061
0.115169,0.138203,0.057585,-0.092136,0.034551,0.080619,-0.034551,0.046068,0.092136,0.126686,0.115169,0.069102
0.124372,0.149246,0.062186,-0.099497,0.037311,0.087060,-0.037311,0.049749,0.099497,0.136809,0.124372,0.074623
0.212344,0.254813,0.106172,-0.169876,0.063703,0.148641,-0.063703,0.084938,0.169876,0.233579,0.212344,0.127407
0.181926,0.218311,0.090963,-0.145541,0.054578,0.127348,-0.054578,0.072770,0.145541,0.200119,0.181926,0.109156
0.169647,0.203577,0.084824,-0.135718,0.050894,0.118753,-0.050894,0.067859,0.135718,0.186612,0.169647,0.101788
0.142561,0.171073,0.071280,-0.114049,0.042768,0.099793,-0.042768,0.057024,0.114049,0.156817,0.142561,0.085537
0.191758,0.230110,0.095879,-0.153407,0.057527,0.134231,-0.057527,0.076703,0.153407,0.210934,0.191758,0.115055
0.179783,0.215739,0.089891,-0.143826,0.053935,0.125848,-0.053935,0.071913,0.143826,0.197761,0.179783,0.107870
0.146680,0.176016,0.073340,-0.117344,0.044004,0.102676,-0.044004,0.058672,0.117344,0.161348,0.146680,0.088008
0.109794,0.131753,0.054897,-0.087835,0.032938,0.076856,-0.032938,0.043918,0.087835,0.120774,0.109794,0.065876
0.105313,0.126376,0.052657,-0.084251,0.031594,0.073719,-0.031594,0.042125,0.084251,0.115845,0.105313,0.063188
0.126565,0.151877,0.063282,-0.101252,0.037969,0.088595,-0.037969,0.050626,0.101252,0.139221,0.126565,0.075939
0.110416,0.132499,0.055208,-0.088333,0.033125,0.077291,-0.033125,0.044166,0.088333,0.121457,0.110416,0.066249
0.084553,0.101463,0.042276,-0.067642,0.025366,0.059187,-0.025366,0.033821,0.067642,0.093008,0.084553,0.050732
0.060426,0.072511,0.030213,-0.048340,0.018128,0.042298,-0.018128,0.024170,0.048340,0.066468,0.060426,0.036255
-0.003432,-0.004118,-0.001716,0.002746,-0.001030,-0.002402,0.001030,-0.001373,-0.002746,-0.003775,-0.003432,-0.002059
0.038174,0.045809,0.019087,-0.030540,0.011452,0.026722,-0.011452,0.015270,0.030540,0.041992,0.038174,0.022905
-0.004672,-0.005606,-0.002336,0.003737,-0.001401,-0.003270,0.001401,-0.001869,-0.003737,-0.005139,-0.004672,-0.002803
0.019520,0.023424,0.009760,-0.015616,0.005856,0.013664,-0.005856,0.007808,0.015616,0.021472,0.019520,0.011712
0.026251,0.031501,0.013125,-0.021000,0.007875,0.018375,-0.007875,0.010500,0.021000,0.028876,0.026251,0.015750
-0.012248,-0.014697,-0.006124,0.009798,-0.003674,-0.008573,0.003674,-0.004899,-0.009798,-0.013473,-0.012248,-0.007349
-0.025660,-0.030792,-0.012830,0.020528,-0.007698,-0.017962,0.007698,-0.010264,-0.020528,-0.028226,-0.025660,-0.015396
0.032676,0.039211,0.016338,-0.026141,0.009803,0.022873,-0.009803,0.013070,0.026141,0.035944,0.032676,0.019606
0.011531,0.013838,0.005766,-0.009225,0.003459,0.008072,-0.003459,0.004613,0.009225,0.012685,0.011531,0.006919
-0.020540,-0.024648,-0.010270,0.016432,-0.006162,-0.014378,0.006162,-0.008216,-0.016432,-0.022594,-0.020540,-0.012324
-0.095588,-0.114706,-0.047794,0.076470,-0.028676,-0.066912,0.028676,-0.038235,-0.076470,-0.105147,-0.095588,-0.057353
-0.014457,-0.017349,-0.007229,0.011566,-0.004337,-0.010120,0.004337,-0.005783,-0.011566,-0.015903,-0.014457,-0.008674
-0.006236,-0.007483,-0.003118,0.004989,-0.001871,-0.004365,0.001871,-0.002494,-0.004989,-0.006860,-0.006236,-0.003742
-0.008720,-0.010464,-0.004360,0.006976,-0.002616,-0.006104,0.002616,-0.003488,-0.006976,-0.009592,-0.008720,-0.005232
-0.083374,-0.100049,-0.041687,0.066700,-0.025012,-0.058362,0.025012,-0.033350,-0.066700,-0.091712,-0.083374,-0.050025
-0.102236,-0.122683,-0.051118,0.081788,-0.030671,-0.071565,0.030671,-0.040894,-0.081788,-0.112459,-0.102236,-0.061341
-0.109852,-0.131822,-0.054926,0.087881,-0.032955,-0.076896,0.032955,-0.043941,-0.087881,-0.120837,-0.109852,-0.065911
-0.074229,-0.089075,-0.037114,0.059383,-0.022269,-0.051960,0.022269,-0.029692,-0.059383,-0.081652,-0.074229,-0.044537
-0.125009,-0.150011,-0.062505,0.100007,-0.037503,-0.087506,0.037503,-0.050004,-0.100007,-0.137510,-0.125009,-0.075005
-0.072054,-0.086465,-0.036027,0.057644,-0.021616,-0.050438,0.021616,-0.028822,-0.057644,-0.079260,-0.072054,-0.043233
-0.063188,-0.075826,-0.031594,0.050550,-0.018956,-0.044232,0.018956,-0.025275,-0.050550,-0.069507,-0.063188,-0.037913
0.026968,0.032362,0.013484,-0.021574,0.008090,0.018878,-0.008090,0.010787,0.021574,0.029665,0.026968,0.016181
0.070209,0.084251,0.035105,-0.056167,0.021063,0.049146,-0.021063,0.028084,0.056167,0.077230,0.070209,0.042125
0.302056,0.362467,0.151028,-0.241645,0.090617,0.211439,-0.090617,0.120822,0.241645,0.332261,0.302056,0.181233
0.547656,0.657187,0.273828,-0.438125,0.164297,0.383359,-0.164297,0.219062,0.438125,0.602421,0.547656,0.328593
0.904507,1.085409,0.452254,-0.723606,0.271352,0.633155,-0.271352,0.361803,0.723606,0.994958,0.904507,0.542704
1.269627,1.523552,0.634813,-1.015701,0.380888,0.888739,-0.380888,0.507851,1.015701,1.396589,1.269627,0.761776
1.504640,1.805568,0.752320,-1.203712,0.451392,1.053248,-0.451392,0.601856,1.203712,1.655104,1.504640,0.902784
1.419536,1.703443,0.709768,-1.135629,0.425861,0.993675,-0.425861,0.567814,1.135629,1.561489,1.419536,0.851721
1.284485,1.541382,0.642242,-1.027588,0.385345,0.899139,-0.385345,0.513794,1.027588,1.412933,1.284485,0.770691
0.929501,1.115401,0.464751,-0.743601,0.278850,0.650651,-0.278850,0.371800,0.743601,1.022451,0.929501,0.557701
0.557560,0.669072,0.278780,-0.446048,0.167268,0.390292,-0.167268,0.223024,0.446048,0.613316,0.557560,0.334536
0.341340,0.409608,0.170670,-0.273072,0.102402,0.238938,-0.102402,0.136536,0.273072,0.375474,0.341340,0.204804
0.138599,0.166318,0.069299,-0.110879,0.041580,0.097019,-0.041580,0.055439,0.110879,0.152459,0.138599,0.083159
0.083860,0.100632,0.041930,-0.067088,0.025158,0.058702,-0.025158,0.033544,0.067088,0.092246,0.083860,0.050316
-0.018123,-0.021748,-0.009062,0.014499,-0.005437,-0.012686,0.005437,-0.007249,-0.014499,-0.019936,-0.018123,-0.010874
-0.059028,-0.070833,-0.029514,0.047222,-0.017708,-0.041319,0.017708,-0.023611,-0.047222,-0.064930,-0.059028,-0.035417
-0.034521,-0.041425,-0.017261,0.027617,-0.010356,-0.024165,0.010356,-0.013808,-0.027617,-0.037973,-0.034521,-0.020713
-0.057531,-0.069037,-0.028765,0.046024,-0.017259,-0.040271,0.017259,-0.023012,-0.046024,-0.063284,-0.057531,-0.034518
-0.165015,-0.198018,-0.082508,0.132012,-0.049505,-0.115511,0.049505,-0.066006,-0.132012,-0.181517,-0.165015,-0.099009
-0.217766,-0.261320,-0.108883,0.174213,-0.065330,-0.152436,0.065330,-0.087107,-0.174213,-0.239543,-0.217766,-0.130660
-0.301793,-0.362151,-0.150896,0.241434,-0.090538,-0.211255,0.090538,-0.120717,-0.241434,-0.331972,-0.301793,-0.181076
-0.339230,-0.407077,-0.169615,0.271384,-0.101769,-0.237461,0.101769,-0.135692,-0.271384,-0.373153,-0.339230,-0.203538
-0.282909,-0.339491,-0.141454,0.226327,-0.084873,-0.198036,0.084873,-0.113164,-0.226327,-0.311200,-0.282909,-0.169745
-0.180414,-0.216497,-0.090207,0.144331,-0.054124,-0.126290,0.054124,-0.072166,-0.144331,-0.198455,-0.180414,-0.108248
-0.218741,-0.262489,-0.109370,0.174993,-0.065622,-0.153119,0.065622,-0.087496,-0.174993,-0.240615,-0.218741,-0.131245
-0.119097,-0.142917,-0.059549,0.095278,-0.035729,-0.083368,0.035729,-0.047639,-0.095278,-0.131007,-0.119097,-0.071458
-0.116438,-0.139726,-0.058219,0.093150,-0.034931,-0.081507,0.034931,-0.046575,-0.093150,-0.128082,-0.116438,-0.069863
-0.026248,-0.031498,-0.013124,0.020999,-0.007875,-0.018374,0.007875,-0.010499,-0.020999,-0.028873,-0.026248,-0.015749
0.013287,0.015944,0.006644,-0.010630,0.003986,0.009301,-0.003986,0.005315,0.010630,0.014616,0.013287,0.007972
-0.042130,-0.050556,-0.021065,0.033704,-0.012639,-0.029491,0.012639,-0.016852,-0.033704,-0.046343,-0.042130,-0.025278
-0.013620,-0.016344,-0.006810,0.010896,-0.004086,-0.009534,0.004086,-0.005448,-0.010896,-0.014982,-0.013620,-0.008172
0.039860,0.047832,0.019930,-0.031888,0.011958,0.027902,-0.011958,0.015944,0.031888,0.043846,0.039860,0.023916
-0.001927,-0.002312,-0.000963,0.001542,-0.000578,-0.001349,0.000578,-0.000771,-0.001542,-0.002120,-0.001927,-0.001156
-0.036025,-0.043230,-0.018012,0.028820,-0.010807,-0.025217,0.010807,-0.014410,-0.028820,-0.039627,-0.036025,-0.021615
-0.037901,-0.045481,-0.018950,0.030321,-0.011370,-0.026531,0.011370,-0.015160,-0.030321,-0.041691,-0.037901,-0.022740
-0.058320,-0.069984,-0.029160,0.046656,-0.017496,-0.040824,0.017496,-0.023328,-0.046656,-0.064152,-0.058320,-0.034992
0.025994,0.031192,0.012997,-0.020795,0.007798,0.018196,-0.007798,0.010397,0.020795,0.028593,0.025994,0.015596
-0.018731,-0.022477,-0.009366,0.014985,-0.005619,-0.013112,0.005619,-0.007492,-0.014985,-0.020604,-0.018731,-0.011239
0.036252,0.043503,0.018126,-0.029002,0.010876,0.025376,-0.010876,0.014501,0.029002,0.039877,0.036252,0.021751
0.032088,0.038505,0.016044,-0.025670,0.009626,0.022461,-0.009626,0.012835,0.025670,0.035297,0.032088,0.019253
-0.012063,-0.014476,-0.006032,0.009651,-0.003619,-0.008444,0.003619,-0.004825,-0.009651,-0.013270,-0.012063,-0.007238
-0.006072,-0.007286,-0.003036,0.004857,-0.001822,-0.004250,0.001822,-0.002429,-0.004857,-0.006679,-0.006072,-0.003643
0.035581,0.042698,0.017791,-0.028465,0.010674,0.024907,-0.010674,0.014233,0.028465,0.039139,0.035581,0.021349
0.019646,0.023575,0.009823,-0.015717,0.005894,0.013752,-0.005894,0.007858,0.015717,0.021611,0.019646,0.011788
0.026685,0.032022,0.013342,-0.021348,0.008005,0.018679,-0.008005,0.010674,0.021348,0.029353,0.026685,0.016011
-0.026672,-0.032007,-0.013336,0.021338,-0.008002,-0.018671,0.008002,-0.010669,-0.021338,-0.029340,-0.026672,-0.016003
0.054421,0.065305,0.027210,-0.043536,0.016326,0.038094,-0.016326,0.021768,0.043536,0.059863,0.054421,0.032652
0.006684,0.008020,0.003342,-0.005347,0.002005,0.004679,-0.002005,0.002673,0.005347,0.007352,0.006684,0.004010
-0.028946,-0.034735,-0.014473,0.023156,-0.008684,-0.020262,0.008684,-0.011578,-0.023156,-0.031840,-0.028946,-0.017367
0.027593,0.033111,0.013796,-0.022074,0.008278,0.019315,-0.008278,0.011037,0.022074,0.030352,0.027593,0.016556
0.066492,0.079790,0.033246,-0.053193,0.019948,0.046544,-0.019948,0.026597,0.053193,0.073141,0.066492,0.039895
0.125232,0.150278,0.062616,-0.100185,0.037570,0.087662,-0.037570,0.050093,0.100185,0.137755,0.125232,0.075139
0.060336,0.072403,0.030168,-0.048269,0.018101,0.042235,-0.018101,0.024134,0.048269,0.066369,0.060336,0.036201
0.041481,0.049777,0.020741,-0.033185,0.012444,0.029037,-0.012444,0.016592,0.033185,0.045629,0.041481,0.024889
0.155493,0.186591,0.077746,-0.124394,0.046648,0.108845,-0.046648,0.062197,0.124394,0.171042,0.155493,0.093296
0.107450,0.128941,0.053725,-0.085960,0.032235,0.075215,-0.032235,0.042980,0.085960,0.118196,0.107450,0.064470
0.105958,0.127149,0.052979,-0.084766,0.031787,0.074170,-0.031787,0.042383,0.084766,0.116553,0.105958,0.063575
0.092787,0.111344,0.046393,-0.074229,0.027836,0.064951,-0.027836,0.037115,0.074229,0.102065,0.092787,0.055672
0.106153,0.127384,0.053077,-0.084923,0.031846,0.074307,-0.031846,0.042461,0.084923,0.116768,0.106153,0.063692
0.191564,0.229876,0.095782,-0.153251,0.057469,0.134095,-0.057469,0.076625,0.153251,0.210720,0.191564,0.114938
0.149520,0.179424,0.074760,-0.119616,0.044856,0.104664,-0.044856,0.059808,0.119616,0.164472,0.149520,0.089712
0.151230,0.181476,0.075615,-0.120984,0.045369,0.105861,-0.045369,0.060492,0.120984,0.166353,0.151230,0.090738
0.160859,0.193031,0.080430,-0.128687,0.048258,0.112601,-0.048258,0.064344,0.128687,0.176945,0.160859,0.096515
0.230849,0.277019,0.115424,-0.184679,0.069255,0.161594,-0.069255,0.092340,0.184679,0.253934,0.230849,0.138509
0.172468,0.206961,0.086234,-0.137974,0.051740,0.120727,-0.051740,0.068987,0.137974,0.189714,0.172468,0.103481
0.213856,0.256627,0.106928,-0.171085,0.064157,0.149699,-0.064157,0.085542,0.171085,0.235242,0.213856,0.128314
0.206259,0.247511,0.103130,-0.165007,0.061878,0.144381,-0.061878,0.082504,0.165007,0.226885,0.206259,0.123755
0.207037,0.248444,0.103519,-0.165630,0.062111,0.144926,-0.062111,0.082815,0.165630,0.227741,0.207037,0.124222
0.173409,0.208091,0.086704,-0.138727,0.052023,0.121386,-0.052023,0.069364,0.138727,0.190750,0.173409,0.104045
0.217643,0.261172,0.108822,-0.174115,0.065293,0.152350,-0.065293,0.087057,0.174115,0.239408,0.217643,0.130586
0.242659,0.291191,0.121330,-0.194127,0.072798,0.169861,-0.072798,0.097064,0.194127,0.266925,0.242659,0.145595
0.187812,0.225375,0.093906,-0.150250,0.056344,0.131469,-0.056344,0.075125,0.150250,0.206593,0.187812,0.112687
0.155392,0.186470,0.077696,-0.124314,0.046618,0.108774,-0.046618,0.062157,0.124314,0.170931,0.155392,0.093235
0.136700,0.164040,0.068350,-0.109360,0.041010,0.095690,-0.041010,0.054680,0.109360,0.150370,0.136700,0.082020
0.172750,0.207300,0.086375,-0.138200,0.051825,0.120925,-0.051825,0.069100,0.138200,0.190025,0.172750,0.103650
0.149930,0.179916,0.074965,-0.119944,0.044979,0.104951,-0.044979,0.059972,0.119944,0.164923,0.149930,0.089958
0.145903,0.175084,0.072952,-0.116723,0.043771,0.102132,-0.043771,0.058361,0.116723,0.160494,0.145903,0.087542
0.140692,0.168830,0.070346,-0.112553,0.042208,0.098484,-0.042208,0.056277,0.112553,0.154761,0.140692,0.084415
0.088254,0.105905,0.044127,-0.070603,0.026476,0.061778,-0.026476,0.035302,0.070603,0.097080,0.088254,0.052953
0.149591,0.179509,0.074795,-0.119673,0.044877,0.104713,-0.044877,0.059836,0.119673,0.164550,0.149591,0.089754
0.128776,0.154531,0.064388,-0.103021,0.038633,0.090143,-0.038633,0.051510,0.103021,0.141654,0.128776,0.077266
0.117548,0.141058,0.058774,-0.094038,0.035264,0.082284,-0.035264,0.047019,0.094038,0.129303,0.117548,0.070529
0.127529,0.153035,0.063765,-0.102023,0.038259,0.089270,-0.038259,0.051012,0.102023,0.140282,0.127529,0.076518
0.151962,0.182354,0.075981,-0.121570,0.045589,0.106373,-0.045589,0.060785,0.121570,0.167158,0.151962,0.091177
0.131964,0.158357,0.065982,-0.105571,0.039589,0.092375,-0.039589,0.052786,0.105571,0.145160,0.131964,0.079178
0.113031,0.135637,0.056515,-0.090425,0.033909,0.079122,-0.033909,0.045212,0.090425,0.124334,0.113031,0.067818
0.182772,0.219326,0.091386,-0.146217,0.054831,0.127940,-0.054831,0.073109,0.146217,0.201049,0.182772,0.109663
0.143916,0.172699,0.071958,-0.115133,0.043175,0.100741,-0.043175,0.057566,0.115133,0.158307,0.143916,0.086349
0.142850,0.171420,0.071425,-0.114280,0.042855,0.099995,-0.042855,0.057140,0.114280,0.157135,0.142850,0.085710
0.122749,0.147299,0.061375,-0.098200,0.036825,0.085925,-0.036825,0.049100,0.098200,0.135024,0.122749,0.073650
0.171102,0.205323,0.085551,-0.136882,0.051331,0.119772,-0.051331,0.068441,0.136882,0.188213,0.171102,0.102661
0.136311,0.163573,0.068155,-0.109049,0.040893,0.095418,-0.040893,0.054524,0.109049,0.149942,0.136311,0.081786
0.144518,0.173422,0.072259,-0.115614,0.043355,0.101163,-0.043355,0.057807,0.115614,0.158970,0.144518,0.086711
0.161771,0.194126,0.080886,-0.129417,0.048531,0.113240,-0.048531,0.064709,0.129417,0.177948,0.161771,0.097063
0.134158,0.160990,0.067079,-0.107326,0.040247,0.093911,-0.040247,0.053663,0.107326,0.147574,0.134158,0.080495
0.146306,0.175568,0.073153,-0.117045,0.043892,0.102415,-0.043892,0.058523,0.117045,0.160937,0.146306,0.087784
0.106671,0.128005,0.053336,-0.085337,0.032001,0.074670,-0.032001,0.042668,0.085337,0.117338,0.106671,0.064003
0.067340,0.080808,0.033670,-0.053872,0.020202,0.047138,-0.020202,0.026936,0.053872,0.074074,0.067340,0.040404
0.052745,0.063294,0.026373,-0.042196,0.015824,0.036922,-0.015824,0.021098,0.042196,0.058020,0.052745,0.031647
0.032545,0.039054,0.016273,-0.026036,0.009764,0.022782,-0.009764,0.013018,0.026036,0.035800,0.032545,0.019527
0.054631,0.065557,0.027315,-0.043705,0.016389,0.038241,-0.016389,0.021852,0.043705,0.060094,0.054631,0.032778
0.025797,0.030957,0.012899,-0.020638,0.007739,0.018058,-0.007739,0.010319,0.020638,0.028377,0.025797,0.015478
0.005046,0.006056,0.002523,-0.004037,0.001514,0.003532,-0.001514,0.002019,0.004037,0.005551,0.005046,0.003028
0.036962,0.044355,0.018481,-0.029570,0.011089,0.025874,-0.011089,0.014785,0.029570,0.040659,0.036962,0.022177
0.010394,0.012473,0.005197,-0.008315,0.003118,0.007276,-0.003118,0.004158,0.008315,0.011433,0.010394,0.006236
-0.009326,-0.011191,-0.004663,0.007461,-0.002798,-0.006528,0.002798,-0.003730,-0.007461,-0.010259,-0.009326,-0.005596
-0.042796,-0.051356,-0.021398,0.034237,-0.012839,-0.029957,0.012839,-0.017119,-0.034237,-0.047076,-0.042796,-0.025678
0.013886,0.016663,0.006943,-0.011109,0.004166,0.009720,-0.004166,0.005554,0.011109,0.015274,0.013886,0.008331
0.005562,0.006675,0.002781,-0.004450,0.001669,0.003893,-0.001669,0.002225,0.004450,0.006118,0.005562,0.003337
-0.004153,-0.004984,-0.002077,0.003323,-0.001246,-0.002907,0.001246,-0.001661,-0.003323,-0.004569,-0.004153,-0.002492
-0.026088,-0.031305,-0.013044,0.020870,-0.007826,-0.018262,0.007826,-0.010435,-0.020870,-0.028697,-0.026088,-0.015653
-0.050174,-0.060208,-0.025087,0.040139,-0.015052,-0.035121,0.015052,-0.020069,-0.040139,-0.055191,-0.050174,-0.030104
-0.049209,-0.059051,-0.024605,0.039367,-0.014763,-0.034447,0.014763,-0.019684,-0.039367,-0.054130,-0.049209,-0.029526
-0.056125,-0.067350,-0.028062,0.044900,-0.016837,-0.039287,0.016837,-0.022450,-0.044900,-0.061737,-0.056125,-0.033675
-0.086800,-0.104160,-0.043400,0.069440,-0.026040,-0.060760,0.026040,-0.034720,-0.069440,-0.095480,-0.086800,-0.052080
-0.100919,-0.121103,-0.050460,0.080736,-0.030276,-0.070644,0.030276,-0.040368,-0.080736,-0.111011,-0.100919,-0.060552
-0.113421,-0.136105,-0.056711,0.090737,-0.034026,-0.079395,0.034026,-0.045368,-0.090737,-0.124763,-0.113421,-0.068053
-0.079607,-0.095528,-0.039803,0.063685,-0.023882,-0.055725,0.023882,-0.031843,-0.063685,-0.087567,-0.079607,-0.047764
-0.061664,-0.073996,-0.030832,0.049331,-0.018499,-0.043164,0.018499,-0.024665,-0.049331,-0.067830,-0.061664,-0.036998
-0.057991,-0.069589,-0.028995,0.046393,-0.017397,-0.040594,0.017397,-0.023196,-0.046393,-0.063790,-0.057991,-0.034795
0.041718,0.050061,0.020859,-0.033374,0.012515,0.029202,-0.012515,0.016687,0.033374,0.045889,0.041718,0.025031
0.140589,0.168707,0.070295,-0.112471,0.042177,0.098412,-0.042177,0.056236,0.112471,0.154648,0.140589,0.084353
0.315178,0.378214,0.157589,-0.252142,0.094553,0.220625,-0.094553,0.126071,0.252142,0.346696,0.315178,0.189107
0.558635,0.670362,0.279318,-0.446908,0.167591,0.391045,-0.167591,0.223454,0.446908,0.614499,0.558635,0.335181
0.905403,1.086484,0.452702,-0.724323,0.271621,0.633782,-0.271621,0.362161,0.724323,0.995944,0.905403,0.543242
1.219079,1.462895,0.609539,-0.975263,0.365724,0.853355,-0.365724,0.487632,0.975263,1.340987,1.219079,0.731447
1.492965,1.791558,0.746483,-1.194372,0.447890,1.045076,-0.447890,0.597186,1.194372,1.642262,1.492965,0.895779
1.406371,1.687646,0.703186,-1.125097,0.421911,0.984460,-0.421911,0.562549,1.125097,1.547009,1.406371,0.843823
1.242649,1.491179,0.621325,-0.994119,0.372795,0.869855,-0.372795,0.497060,0.994119,1.366914,1.242649,0.745590
0.902561,1.083074,0.451281,-0.722049,0.270768,0.631793,-0.270768,0.361025,0.722049,0.992817,0.902561,0.541537
0.592087,0.710504,0.296043,-0.473670,0.177626,0.414461,-0.177626,0.236835,0.473670,0.651296,0.592087,0.355252
0.299201,0.359042,0.149601,-0.239361,0.089760,0.209441,-0.089760,0.119681,0.239361,0.329121,0.299201,0.179521
0.104005,0.124806,0.052003,-0.083204,0.031202,0.072804,-0.031202,0.041602,0.083204,0.114406,0.104005,0.062403
0.002254,0.002704,0.001127,-0.001803,0.000676,0.001578,-0.000676,0.000901,0.001803,0.002479,0.002254,0.001352
-0.022214,-0.026657,-0.011107,0.017771,-0.006664,-0.015550,0.006664,-0.008886,-0.017771,-0.024435,-0.022214,-0.013328
-0.029828,-0.035793,-0.014914,0.023862,-0.008948,-0.020879,0.008948,-0.011931,-0.023862,-0.032810,-0.029828,-0.017897
-0.069609,-0.083531,-0.034805,0.055687,-0.020883,-0.048727,0.020883,-0.027844,-0.055687,-0.076570,-0.069609,-0.041766
-0.128387,-0.154065,-0.064194,0.102710,-0.038516,-0.089871,0.038516,-0.051355,-0.102710,-0.141226,-0.128387,-0.077032
-0.204559,-0.245470,-0.102279,0.163647,-0.061368,-0.143191,0.061368,-0.081823,-0.163647,-0.225015,-0.204559,-0.122735
-0.250806,-0.300967,-0.125403,0.200645,-0.075242,-0.175564,0.075242,-0.100322,-0.200645,-0.275886,-0.250806,-0.150483
-0.257643,-0.309171,-0.128821,0.206114,-0.077293,-0.180350,0.077293,-0.103057,-0.206114,-0.283407,-0.257643,-0.154586
-0.332488,-0.398986,-0.166244,0.265991,-0.099746,-0.232742,0.099746,-0.132995,-0.265991,-0.365737,-0.332488,-0.199493
-0.275120,-0.330145,-0.137560,0.220096,-0.082536,-0.192584,0.082536,-0.110048,-0.220096,-0.302633,-0.275120,-0.165072
-0.176866,-0.212240,-0.088433,0.141493,-0.053060,-0.123807,0.053060,-0.070747,-0.141493,-0.194553,-0.176866,-0.106120
-0.146297,-0.175557,-0.073149,0.117038,-0.043889,-0.102408,0.043889,-0.058519,-0.117038,-0.160927,-0.146297,-0.087778
-0.117915,-0.141498,-0.058958,0.094332,-0.035375,-0.082541,0.035375,-0.047166,-0.094332,-0.129707,-0.117915,-0.070749
-0.039173,-0.047007,-0.019586,0.031338,-0.011752,-0.027421,0.011752,-0.015669,-0.031338,-0.043090,-0.039173,-0.023504
-0.052057,-0.062469,-0.026029,0.041646,-0.015617,-0.036440,0.015617,-0.020823,-0.041646,-0.057263,-0.052057,-0.031234
-0.012729,-0.015275,-0.006364,0.010183,-0.003819,-0.008910,0.003819,-0.005092,-0.010183,-0.014002,-0.012729,-0.007637
0.041773,0.050127,0.020886,-0.033418,0.012532,0.029241,-0.012532,0.016709,0.033418,0.045950,0.041773,0.025064
0.055486,0.066583,0.027743,-0.044389,0.016646,0.038840,-0.016646,0.022194,0.044389,0.061035,0.055486,0.033292
-0.051172,-0.061406,-0.025586,0.040937,-0.015351,-0.035820,0.015351,-0.020469,-0.040937,-0.056289,-0.051172,-0.030703
0.021729,0.026075,0.010865,-0.017383,0.006519,0.015210,-0.006519,0.008692,0.017383,0.023902,0.021729,0.013037
0.059611,0.071533,0.029805,-0.047689,0.017883,0.041728,-0.017883,0.023844,0.047689,0.065572,0.059611,0.035767
-0.014773,-0.017728,-0.007387,0.011818,-0.004432,-0.010341,0.004432,-0.005909,-0.011818,-0.016250,-0.014773,-0.008864
0.009889,0.011867,0.004944,-0.007911,0.002967,0.006922,-0.002967,0.003956,0.007911,0.010878,0.009889,0.005933
0.048012,0.057614,0.024006,-0.038410,0.014404,0.033608,-0.014404,0.019205,0.038410,0.052813,0.048012,0.028807
-0.011123,-0.013348,-0.005562,0.008899,-0.003337,-0.007786,0.003337,-0.004449,-0.008899,-0.012236,-0.011123,-0.006674
0.018292,0.021951,0.009146,-0.014634,0.005488,0.012805,-0.005488,0.007317,0.014634,0.020122,0.018292,0.010975
0.004301,0.005161,0.002150,-0.003441,0.001290,0.003011,-0.001290,0.001720,0.003441,0.004731,0.004301,0.002580
-0.050023,-0.060028,-0.025012,0.040019,-0.015007,-0.035016,0.015007,-0.020009,-0.040019,-0.055026,-0.050023,-0.030014
0.020151,0.024181,0.010075,-0.016120,0.006045,0.014105,-0.006045,0.008060,0.016120,0.022166,0.020151,0.012090
0.006699,0.008038,0.003349,-0.005359,0.002010,0.004689,-0.002010,0.002679,0.005359,0.007369,0.006699,0.004019
0.043007,0.051609,0.021504,-0.034406,0.012902,0.030105,-0.012902,0.017203,0.034406,0.047308,0.043007,0.025804
0.081451,0.097742,0.040726,-0.065161,0.024435,0.057016,-0.024435,0.032581,0.065161,0.089597,0.081451,0.048871
0.043257,0.051908,0.021629,-0.034606,0.012977,0.030280,-0.012977,0.017303,0.034606,0.047583,0.043257,0.025954
0.016467,0.019761,0.008234,-0.013174,0.004940,0.011527,-0.004940,0.006587,0.013174,0.018114,0.016467,0.009880
0.046448,0.055737,0.023224,-0.037158,0.013934,0.032514,-0.013934,0.018579,0.037158,0.051093,0.046448,0.027869
0.045193,0.054232,0.022597,-0.036154,0.013558,0.031635,-0.013558,0.018077,0.036154,0.049712,0.045193,0.027116
0.076790,0.092148,0.038395,-0.061432,0.023037,0.053753,-0.023037,0.030716,0.061432,0.084469,0.076790,0.046074
0.010668,0.012802,0.005334,-0.008535,0.003200,0.007468,-0.003200,0.004267,0.008535,0.011735,0.010668,0.006401
0.027328,0.032794,0.013664,-0.021863,0.008198,0.019130,-0.008198,0.010931,0.021863,0.030061,0.027328,0.016397
0.010165,0.012198,0.005082,-0.008132,0.003049,0.007115,-0.003049,0.004066,0.008132,0.011181,0.010165,0.006099
0.099587,0.119504,0.049794,-0.079670,0.029876,0.069711,-0.029876,0.039835,0.079670,0.109546,0.099587,0.059752
0.091218,0.109462,0.045609,-0.072975,0.027366,0.063853,-0.027366,0.036487,0.072975,0.100340,0.091218,0.054731
0.083439,0.100127,0.041720,-0.066751,0.025032,0.058407,-0.025032,0.033376,0.066751,0.091783,0.083439,0.050064
0.092035,0.110442,0.046018,-0.073628,0.027611,0.064425,-0.027611,0.036814,0.073628,0.101239,0.092035,0.055221
0.107901,0.129481,0.053950,-0.086320,0.032370,0.075530,-0.032370,0.043160,0.086320,0.118691,0.107901,0.064740
0.108438,0.130126,0.054219,-0.086750,0.032531,0.075907,-0.032531,0.043375,0.086750,0.119282,0.108438,0.065063
0.137561,0.165074,0.068781,-0.110049,0.041268,0.096293,-0.041268,0.055025,0.110049,0.151317,0.137561,0.082537
0.142815,0.171378,0.071407,-0.114252,0.042844,0.099970,-0.042844,0.057126,0.114252,0.157096,0.142815,0.085689
0.209064,0.250876,0.104532,-0.167251,0.062719,0.146345,-0.062719,0.083625,0.167251,0.229970,0.209064,0.125438
0.185856,0.223027,0.092928,-0.148685,0.055757,0.130099,-0.055757,0.074342,0.148685,0.204441,0.185856,0.111513
0.159258,0.191109,0.079629,-0.127406,0.047777,0.111480,-0.047777,0.063703,0.127406,0.175183,0.159258,0.095555
0.172634,0.207161,0.086317,-0.138108,0.051790,0.120844,-0.051790,0.069054,0.138108,0.189898,0.172634,0.103581
0.230982,0.277178,0.115491,-0.184785,0.069295,0.161687,-0.069295,0.092393,0.184785,0.254080,0.230982,0.138589
0.211853,0.254223,0.105926,-0.169482,0.063556,0.148297,-0.063556,0.084741,0.169482,0.233038,0.211853,0.127112
0.208726,0.250471,0.104363,-0.166981,0.062618,0.146108,-0.062618,0.083490,0.166981,0.229599,0.208726,0.125236
0.221370,0.265644,0.110685,-0.177096,0.066411,0.154959,-0.066411,0.088548,0.177096,0.243507,0.221370,0.132822
0.245518,0.294622,0.122759,-0.196415,0.073655,0.171863,-0.073655,0.098207,0.196415,0.270070,0.245518,0.147311
0.157974,0.189569,0.078987,-0.126379,0.047392,0.110582,-0.047392,0.063190,0.126379,0.173771,0.157974,0.094784
0.167182,0.200619,0.083591,-0.133746,0.050155,0.117028,-0.050155,0.066873,0.133746,0.183901,0.167182,0.100309
0.131081,0.157298,0.065541,-0.104865,0.039324,0.091757,-0.039324,0.052433,0.104865,0.144190,0.131081,0.078649
0.190836,0.229004,0.095418,-0.152669,0.057251,0.133585,-0.057251,0.076335,0.152669,0.209920,0.190836,0.114502
0.156582,0.187899,0.078291,-0.125266,0.046975,0.109608,-0.046975,0.062633,0.125266,0.172241,0.156582,0.093949
0.139414,0.167297,0.069707,-0.111531,0.041824,0.097590,-0.041824,0.055766,0.111531,0.153356,0.139414,0.083649
0.128462,0.154154,0.064231,-0.102769,0.038539,0.089923,-0.038539,0.051385,0.102769,0.141308,0.128462,0.077077
0.164495,0.197394,0.082247,-0.131596,0.049348,0.115146,-0.049348,0.065798,0.131596,0.180944,0.164495,0.098697
0.133149,0.159779,0.066575,-0.106520,0.039945,0.093205,-0.039945,0.053260,0.106520,0.146464,0.133149,0.079890
0.116942,0.140331,0.058471,-0.093554,0.035083,0.081860,-0.035083,0.046777,0.093554,0.128637,0.116942,0.070165
0.168238,0.201886,0.084119,-0.134590,0.050471,0.117767,-0.050471,0.067295,0.134590,0.185062,0.168238,0.100943
0.099520,0.119423,0.049760,-0.079616,0.029856,0.069664,-0.029856,0.039808,0.079616,0.109471,0.099520,0.059712
0.095997,0.115197,0.047999,-0.076798,0.028799,0.067198,-0.028799,0.038399,0.076798,0.105597,0.095997,0.057598
0.217287,0.260745,0.108644,-0.173830,0.065186,0.152101,-0.065186,0.086915,0.173830,0.239016,0.217287,0.130372
0.135868,0.163042,0.067934,-0.108695,0.040760,0.095108,-0.040760,0.054347,0.108695,0.149455,0.135868,0.081521
0.139084,0.166901,0.069542,-0.111267,0.041725,0.097359,-0.041725,0.055634,0.111267,0.152992,0.139084,0.083450
0.141926,0.170311,0.070963,-0.113540,0.042578,0.099348,-0.042578,0.056770,0.113540,0.156118,0.141926,0.085155
0.166578,0.199893,0.083289,-0.133262,0.049973,0.116604,-0.049973,0.066631,0.133262,0.183235,0.166578,0.099947
0.198425,0.238111,0.099213,-0.158740,0.059528,0.138898,-0.059528,0.079370,0.158740,0.218268,0.198425,0.119055
0.198104,0.237725,0.099052,-0.158484,0.059431,0.138673,-0.059431,0.079242,0.158484,0.217915,0.198104,0.118863
0.188048,0.225657,0.094024,-0.150438,0.056414,0.131633,-0.056414,0.075219,0.150438,0.206853,0.188048,0.112829
0.155125,0.186150,0.077563,-0.124100,0.046538,0.108588,-0.046538,0.062050,0.124100,0.170638,0.155125,0.093075
0.106446,0.127736,0.053223,-0.085157,0.031934,0.074512,-0.031934,0.042579,0.085157,0.117091,0.106446,0.063868
0.144029,0.172835,0.072015,-0.115223,0.043209,0.100820,-0.043209,0.057612,0.115223,0.158432,0.144029,0.086417
0.163346,0.196015,0.081673,-0.130677,0.049004,0.114342,-0.049004,0.065338,0.130677,0.179680,0.163346,0.098007
0.131200,0.157440,0.065600,-0.104960,0.039360,0.091840,-0.039360,0.052480,0.104960,0.144320,0.131200,0.078720
0.075706,0.090848,0.037853,-0.060565,0.022712,0.052994,-0.022712,0.030283,0.060565,0.083277,0.075706,0.045424
0.087752,0.105302,0.043876,-0.070201,0.026325,0.061426,-0.026325,0.035101,0.070201,0.096527,0.087752,0.052651
0.037026,0.044431,0.018513,-0.029621,0.011108,0.025918,-0.011108,0.014810,0.029621,0.040729,0.037026,0.022216
0.034233,0.041079,0.017116,-0.027386,0.010270,0.023963,-0.010270,0.013693,0.027386,0.037656,0.034233,0.020540
-0.011374,-0.013649,-0.005687,0.009099,-0.003412,-0.007962,0.003412,-0.004550,-0.009099,-0.012511,-0.011374,-0.006824
0.008299,0.009959,0.004150,-0.006639,0.002490,0.005810,-0.002490,0.003320,0.006639,0.009129,0.008299,0.004980
0.016128,0.019353,0.008064,-0.012902,0.004838,0.011290,-0.004838,0.006451,0.012902,0.017741,0.016128,0.009677
0.002658,0.003190,0.001329,-0.002126,0.000797,0.001861,-0.000797,0.001063,0.002126,0.002924,0.002658,0.001595
0.027907,0.033488,0.013953,-0.022325,0.008372,0.019535,-0.008372,0.011163,0.022325,0.030697,0.027907,0.016744
0.059210,0.071052,0.029605,-0.047368,0.017763,0.041447,-0.017763,0.023684,0.047368,0.065131,0.059210,0.035526
0.040502,0.048603,0.020251,-0.032402,0.012151,0.028352,-0.012151,0.016201,0.032402,0.044552,0.040502,0.024301
-0.010681,-0.012817,-0.005341,0.008545,-0.003204,-0.007477,0.003204,-0.004272,-0.008545,-0.011749,-0.010681,-0.006409
-0.027581,-0.033097,-0.013790,0.022065,-0.008274,-0.019306,0.008274,-0.011032,-0.022065,-0.030339,-0.027581,-0.016548
-0.032611,-0.039134,-0.016306,0.026089,-0.009783,-0.022828,0.009783,-0.013045,-0.026089,-0.035872,-0.032611,-0.019567
-0.054479,-0.065374,-0.027239,0.043583,-0.016344,-0.038135,0.016344,-0.021791,-0.043583,-0.059926,-0.054479,-0.032687
-0.041371,-0.049645,-0.020685,0.033097,-0.012411,-0.028960,0.012411,-0.016548,-0.033097,-0.045508,-0.041371,-0.024823
-0.050422,-0.060507,-0.025211,0.040338,-0.015127,-0.035296,0.015127,-0.020169,-0.040338,-0.055464,-0.050422,-0.030253
-0.077465,-0.092958,-0.038733,0.061972,-0.023240,-0.054226,0.023240,-0.030986,-0.061972,-0.085212,-0.077465,-0.046479
-0.090763,-0.108916,-0.045381,0.072610,-0.027229,-0.063534,0.027229,-0.036305,-0.072610,-0.099839,-0.090763,-0.054458
-0.094626,-0.113551,-0.047313,0.075701,-0.028388,-0.066238,0.028388,-0.037850,-0.075701,-0.104089,-0.094626,-0.056776
-0.093733,-0.112479,-0.046866,0.074986,-0.028120,-0.065613,0.028120,-0.037493,-0.074986,-0.103106,-0.093733,-0.056240
-0.090941,-0.109130,-0.045471,0.072753,-0.027282,-0.063659,0.027282,-0.036377,-0.072753,-0.100035,-0.090941,-0.054565
0.016322,0.019586,0.008161,-0.013058,0.004897,0.011425,-0.004897,0.006529,0.013058,0.017954,0.016322,0.009793
0.050336,0.060404,0.025168,-0.040269,0.015101,0.035235,-0.015101,0.020135,0.040269,0.055370,0.050336,0.030202
0.089601,0.107521,0.044801,-0.071681,0.026880,0.062721,-0.026880,0.035840,0.071681,0.098561,0.089601,0.053761
0.263613,0.316336,0.131807,-0.210891,0.079084,0.184529,-0.079084,0.105445,0.210891,0.289975,0.263613,0.158168
0.544967,0.653960,0.272483,-0.435973,0.163490,0.381477,-0.163490,0.217987,0.435973,0.599463,0.544967,0.326980
0.912219,1.094663,0.456110,-0.729775,0.273666,0.638554,-0.273666,0.364888,0.729775,1.003441,0.912219,0.547332
1.291625,1.549950,0.645813,-1.033300,0.387488,0.904138,-0.387488,0.516650,1.033300,1.420788,1.291625,0.774975
1.500771,1.800925,0.750385,-1.200617,0.450231,1.050540,-0.450231,0.600308,1.200617,1.650848,1.500771,0.900462
1.502478,1.802973,0.751239,-1.201982,0.450743,1.051734,-0.450743,0.600991,1.201982,1.652726,1.502478,0.901487
1.287013,1.544416,0.643507,-1.029611,0.386104,0.900909,-0.386104,0.514805,1.029611,1.415714,1.287013,0.772208
0.945949,1.135138,0.472974,-0.756759,0.283785,0.662164,-0.283785,0.378379,0.756759,1.040543,0.945949,0.567569
0.588501,0.706201,0.294251,-0.470801,0.176550,0.411951,-0.176550,0.235400,0.470801,0.647351,0.588501,0.353101
0.312855,0.375426,0.156427,-0.250284,0.093856,0.218998,-0.093856,0.125142,0.250284,0.344140,0.312855,0.187713
0.129368,0.155241,0.064684,-0.103494,0.038810,0.090557,-0.038810,0.051747,0.103494,0.142304,0.129368,0.077621
-0.007256,-0.008708,-0.003628,0.005805,-0.002177,-0.005080,0.002177,-0.002903,-0.005805,-0.007982,-0.007256,-0.004354
-0.004216,-0.005060,-0.002108,0.003373,-0.001265,-0.002952,0.001265,-0.001687,-0.003373,-0.004638,-0.004216,-0.002530
0.021033,0.025240,0.010517,-0.016827,0.006310,0.014723,-0.006310,0.008413,0.016827,0.023137,0.021033,0.012620
-0.087460,-0.104952,-0.043730,0.069968,-0.026238,-0.061222,0.026238,-0.034984,-0.069968,-0.096206,-0.087460,-0.052476
-0.141230,-0.169475,-0.070615,0.112984,-0.042369,-0.098861,0.042369,-0.056492,-0.112984,-0.155352,-0.141230,-0.084738
-0.153506,-0.184208,-0.076753,0.122805,-0.046052,-0.107454,0.046052,-0.061403,-0.122805,-0.168857,-0.153506,-0.092104
-0.242083,-0.290500,-0.121042,0.193667,-0.072625,-0.169458,0.072625,-0.096833,-0.193667,-0.266291,-0.242083,-0.145250
-0.301977,-0.362373,-0.150989,0.241582,-0.090593,-0.211384,0.090593,-0.120791,-0.241582,-0.332175,-0.301977,-0.181186
-0.252746,-0.303295,-0.126373,0.202196,-0.075824,-0.176922,0.075824,-0.101098,-0.202196,-0.278020,-0.252746,-0.151647
-0.257405,-0.308886,-0.128703,0.205924,-0.077222,-0.180184,0.077222,-0.102962,-0.205924,-0.283146,-0.257405,-0.154443
-0.202696,-0.243235,-0.101348,0.162157,-0.060809,-0.141887,0.060809,-0.081078,-0.162157,-0.222966,-0.202696,-0.121618
-0.179864,-0.215837,-0.089932,0.143892,-0.053959,-0.125905,0.053959,-0.071946,-0.143892,-0.197851,-0.179864,-0.107919
-0.089326,-0.107191,-0.044663,0.071461,-0.026798,-0.062528,0.026798,-0.035730,-0.071461,-0.098258,-0.089326,-0.053595
-0.047707,-0.057248,-0.023854,0.038166,-0.014312,-0.033395,0.014312,-0.019083,-0.038166,-0.052478,-0.047707,-0.028624
-0.006184,-0.007421,-0.003092,0.004947,-0.001855,-0.004329,0.001855,-0.002474,-0.004947,-0.006803,-0.006184,-0.003710
0.021535,0.025842,0.010767,-0.017228,0.006460,0.015074,-0.006460,0.008614,0.017228,0.023688,0.021535,0.012921
0.028934,0.034721,0.014467,-0.023147,0.008680,0.020254,-0.008680,0.011574,0.023147,0.031827,0.028934,0.017360
0.003777,0.004532,0.001888,-0.003021,0.001133,0.002644,-0.001133,0.001511,0.003021,0.004154,0.003777,0.002266
0.020772,0.024927,0.010386,-0.016618,0.006232,0.014541,-0.006232,0.008309,0.016618,0.022849,0.020772,0.012463
-0.033625,-0.040350,-0.016813,0.026900,-0.010088,-0.023538,0.010088,-0.013450,-0.026900,-0.036988,-0.033625,-0.020175
0.020461,0.024553,0.010230,-0.016369,0.006138,0.014323,-0.006138,0.008184,0.016369,0.022507,0.020461,0.012277
0.022117,0.026540,0.011058,-0.017693,0.006635,0.015482,-0.006635,0.008847,0.017693,0.024328,0.022117,0.013270
-0.009547,-0.011456,-0.004773,0.007637,-0.002864,-0.006683,0.002864,-0.003819,-0.007637,-0.010501,-0.009547,-0.005728
-0.020418,-0.024501,-0.010209,0.016334,-0.006125,-0.014292,0.006125,-0.008167,-0.016334,-0.022459,-0.020418,-0.012251
0.001890,0.002268,0.000945,-0.001512,0.000567,0.001323,-0.000567,0.000756,0.001512,0.002079,0.001890,0.001134
-0.031672,-0.038006,-0.015836,0.025338,-0.009502,-0.022170,0.009502,-0.012669,-0.025338,-0.034839,-0.031672,-0.019003
0.016303,0.019564,0.008152,-0.013043,0.004891,0.011412,-0.004891,0.006521,0.013043,0.017934,0.016303,0.009782
0.016579,0.019894,0.008289,-0.013263,0.004974,0.011605,-0.004974,0.006631,0.013263,0.018236,0.016579,0.009947
-0.018690,-0.022428,-0.009345,0.014952,-0.005607,-0.013083,0.005607,-0.007476,-0.014952,-0.020559,-0.018690,-0.011214
0.013649,0.016379,0.006825,-0.010919,0.004095,0.009555,-0.004095,0.005460,0.010919,0.015014,0.013649,0.008190
0.047195,0.056634,0.023597,-0.037756,0.014158,0.033036,-0.014158,0.018878,0.037756,0.051914,0.047195,0.028317
0.050528,0.060634,0.025264,-0.040422,0.015158,0.035370,-0.015158,0.020211,0.040422,0.055581,0.050528,0.030317
0.053057,0.063668,0.026528,-0.042445,0.015917,0.037140,-0.015917,0.021223,0.042445,0.058362,0.053057,0.031834
0.022978,0.027574,0.011489,-0.018383,0.006894,0.016085,-0.006894,0.009191,0.018383,0.025276,0.022978,0.013787
0.022799,0.027359,0.011400,-0.018239,0.006840,0.015960,-0.006840,0.009120,0.018239,0.025079,0.022799,0.013680
0.027414,0.032896,0.013707,-0.021931,0.008224,0.019190,-0.008224,0.010965,0.021931,0.030155,0.027414,0.016448
0.063881,0.076657,0.031941,-0.051105,0.019164,0.044717,-0.019164,0.025552,0.051105,0.070269,0.063881,0.038329
0.124388,0.149266,0.062194,-0.099510,0.037316,0.087072,-0.037316,0.049755,0.099510,0.136827,0.124388,0.074633
0.104468,0.125362,0.052234,-0.083575,0.031340,0.073128,-0.031340,0.041787,0.083575,0.114915,0.104468,0.062681
0.119094,0.142912,0.059547,-0.095275,0.035728,0.083366,-0.035728,0.047637,0.095275,0.131003,0.119094,0.071456
0.121872,0.146246,0.060936,-0.097497,0.036562,0.085310,-0.036562,0.048749,0.097497,0.134059,0.121872,0.073123
0.043406,0.052087,0.021703,-0.034725,0.013022,0.030384,-0.013022,0.017362,0.034725,0.047746,0.043406,0.026043
0.096622,0.115946,0.048311,-0.077297,0.028987,0.067635,-0.028987,0.038649,0.077297,0.106284,0.096622,0.057973
0.100813,0.120976,0.050407,-0.080651,0.030244,0.070569,-0.030244,0.040325,0.080651,0.110895,0.100813,0.060488
0.162554,0.195064,0.081277,-0.130043,0.048766,0.113788,-0.048766,0.065021,0.130043,0.178809,0.162554,0.097532
0.186924,0.224309,0.093462,-0.149539,0.056077,0.130847,-0.056077,0.074770,0.149539,0.205617,0.186924,0.112155
0.127286,0.152743,0.063643,-0.101829,0.038186,0.089100,-0.038186,0.050914,0.101829,0.140015,0.127286,0.076372
0.158802,0.190562,0.079401,-0.127041,0.047640,0.111161,-0.047640,0.063521,0.127041,0.174682,0.158802,0.095281
0.184081,0.220898,0.092041,-0.147265,0.055224,0.128857,-0.055224,0.073633,0.147265,0.202489,0.184081,0.110449
0.161507,0.193808,0.080753,-0.129205,0.048452,0.113055,-0.048452,0.064603,0.129205,0.177657,0.161507,0.096904
0.164966,0.197960,0.082483,-0.131973,0.049490,0.115476,-0.049490,0.065987,0.131973,0.181463,0.164966,0.098980
0.169847,0.203816,0.084923,-0.135877,0.050954,0.118893,-0.050954,0.067939,0.135877,0.186831,0.169847,0.101908
0.221601,0.265921,0.110800,-0.177280,0.066480,0.155120,-0.066480,0.088640,0.177280,0.243761,0.221601,0.132960
0.171090,0.205308,0.085545,-0.136872,0.051327,0.119763,-0.051327,0.068436,0.136872,0.188199,0.171090,0.102654
0.234095,0.280914,0.117048,-0.187276,0.070229,0.163867,-0.070229,0.093638,0.187276,0.257505,0.234095,0.140457
0.202672,0.243206,0.101336,-0.162138,0.060802,0.141870,-0.060802,0.081069,0.162138,0.222939,0.202672,0.121603
0.221069,0.265283,0.110534,-0.176855,0.066321,0.154748,-0.066321,0.088428,0.176855,0.243176,0.221069,0.132641
0.241884,0.290261,0.120942,-0.193507,0.072565,0.169319,-0.072565,0.096754,0.193507,0.266073,0.241884,0.145131
0.171268,0.205522,0.085634,-0.137015,0.051381,0.119888,-0.051381,0.068507,0.137015,0.188395,0.171268,0.102761
0.161748,0.194098,0.080874,-0.129398,0.048524,0.113224,-0.048524,0.064699,0.129398,0.177923,0.161748,0.097049
0.193485,0.232182,0.096743,-0.154788,0.058046,0.135440,-0.058046,0.077394,0.154788,0.212834,0.193485,0.116091
0.144190,0.173027,0.072095,-0.115352,0.043257,0.100933,-0.043257,0.057676,0.115352,0.158608,0.144190,0.086514
0.148269,0.177923,0.074135,-0.118616,0.044481,0.103789,-0.044481,0.059308,0.118616,0.163096,0.148269,0.088962
0.162943,0.195531,0.081471,-0.130354,0.048883,0.114060,-0.048883,0.065177,0.130354,0.179237,0.162943,0.097766
0.168892,0.202670,0.084446,-0.135113,0.050667,0.118224,-0.050667,0.067557,0.135113,0.185781,0.168892,0.101335
0.126768,0.152122,0.063384,-0.101415,0.038031,0.088738,-0.038031,0.050707,0.101415,0.139445,0.126768,0.076061
0.154696,0.185635,0.077348,-0.123757,0.046409,0.108287,-0.046409,0.061878,0.123757,0.170165,0.154696,0.092817
0.187790,0.225348,0.093895,-0.150232,0.056337,0.131453,-0.056337,0.075116,0.150232,0.206569,0.187790,0.112674
0.216356,0.259627,0.108178,-0.173085,0.064907,0.151449,-0.064907,0.086542,0.173085,0.237992,0.216356,0.129814
0.123807,0.148569,0.061904,-0.099046,0.037142,0.086665,-0.037142,0.049523,0.099046,0.136188,0.123807,0.074284
0.227914,0.273497,0.113957,-0.182331,0.068374,0.159540,-0.068374,0.091166,0.182331,0.250705,0.227914,0.136748
0.219881,0.263857,0.109941,-0.175905,0.065964,0.153917,-0.065964,0.087952,0.175905,0.241869,0.219881,0.131929
0.162968,0.195561,0.081484,-0.130374,0.048890,0.114077,-0.048890,0.065187,0.130374,0.179264,0.162968,0.097781
0.149734,0.179681,0.074867,-0.119787,0.044920,0.104814,-0.044920,0.059894,0.119787,0.164708,0.149734,0.089841
0.200258,0.240310,0.100129,-0.160207,0.060077,0.140181,-0.060077,0.080103,0.160207,0.220284,0.200258,0.120155
0.164887,0.197865,0.082444,-0.131910,0.049466,0.115421,-0.049466,0.065955,0.131910,0.181376,0.164887,0.098932
0.167233,0.200679,0.083616,-0.133786,0.050170,0.117063,-0.050170,0.066893,0.133786,0.183956,0.167233,0.100340
0.171520,0.205824,0.085760,-0.137216,0.051456,0.120064,-0.051456,0.068608,0.137216,0.188672,0.171520,0.102912
0.115283,0.138340,0.057641,-0.092226,0.034585,0.080698,-0.034585,0.046113,0.092226,0.126811,0.115283,0.069170
0.111176,0.133411,0.055588,-0.088941,0.033353,0.077823,-0.033353,0.044470,0.088941,0.122294,0.111176,0.066706
0.100910,0.121092,0.050455,-0.080728,0.030273,0.070637,-0.030273,0.040364,0.080728,0.111001,0.100910,0.060546
0.095118,0.114141,0.047559,-0.076094,0.028535,0.066583,-0.028535,0.038047,0.076094,0.104630,0.095118,0.057071
0.105188,0.126226,0.052594,-0.084151,0.031557,0.073632,-0.031557,0.042075,0.084151,0.115707,0.105188,0.063113
0.089883,0.107860,0.044942,-0.071907,0.026965,0.062918,-0.026965,0.035953,0.071907,0.098872,0.089883,0.053930
0.035375,0.042450,0.017687,-0.028300,0.010612,0.024762,-0.010612,0.014150,0.028300,0.038912,0.035375,0.021225
0.012681,0.015217,0.006341,-0.010145,0.003804,0.008877,-0.003804,0.005072,0.010145,0.013949,0.012681,0.007609
0.084352,0.101222,0.042176,-0.067481,0.025306,0.059046,-0.025306,0.033741,0.067481,0.092787,0.084352,0.050611
0.028053,0.033663,0.014026,-0.022442,0.008416,0.019637,-0.008416,0.011221,0.022442,0.030858,0.028053,0.016832
0.018484,0.022181,0.009242,-0.014787,0.005545,0.012939,-0.005545,0.007394,0.014787,0.020333,0.018484,0.011091
-0.029488,-0.035386,-0.014744,0.023591,-0.008847,-0.020642,0.008847,-0.011795,-0.023591,-0.032437,-0.029488,-0.017693
0.024626,0.029551,0.012313,-0.019701,0.007388,0.017238,-0.007388,0.009850,0.019701,0.027089,0.024626,0.014776
-0.024341,-0.029209,-0.012170,0.019473,-0.007302,-0.017039,0.007302,-0.009736,-0.019473,-0.026775,-0.024341,-0.014605
-0.019028,-0.022834,-0.009514,0.015223,-0.005708,-0.013320,0.005708,-0.007611,-0.015223,-0.020931,-0.019028,-0.011417
-0.052679,-0.063214,-0.026339,0.042143,-0.015804,-0.036875,0.015804,-0.021071,-0.042143,-0.057946,-0.052679,-0.031607
-0.040474,-0.048569,-0.020237,0.032379,-0.012142,-0.028332,0.012142,-0.016190,-0.032379,-0.044522,-0.040474,-0.024285
-0.040418,-0.048502,-0.020209,0.032335,-0.012125,-0.028293,0.012125,-0.016167,-0.032335,-0.044460,-0.040418,-0.024251
-0.107755,-0.129306,-0.053877,0.086204,-0.032326,-0.075428,0.032326,-0.043102,-0.086204,-0.118530,-0.107755,-0.064653
-0.109608,-0.131530,-0.054804,0.087687,-0.032882,-0.076726,0.032882,-0.043843,-0.087687,-0.120569,-0.109608,-0.065765
-0.098854,-0.118625,-0.049427,0.079083,-0.029656,-0.069198,0.029656,-0.039542,-0.079083,-0.108740,-0.098854,-0.059313
-0.137034,-0.164440,-0.068517,0.109627,-0.041110,-0.095923,0.041110,-0.054813,-0.109627,-0.150737,-0.137034,-0.082220
-0.127122,-0.152546,-0.063561,0.101698,-0.038137,-0.088985,0.038137,-0.050849,-0.101698,-0.139834,-0.127122,-0.076273
-0.093480,-0.112176,-0.046740,0.074784,-0.028044,-0.065436,0.028044,-0.037392,-0.074784,-0.102828,-0.093480,-0.056088
-0.077407,-0.092889,-0.038704,0.061926,-0.023222,-0.054185,0.023222,-0.030963,-0.061926,-0.085148,-0.077407,-0.046444
0.037263,0.044716,0.018632,-0.029811,0.011179,0.026084,-0.011179,0.014905,0.029811,0.040990,0.037263,0.022358
0.087201,0.104641,0.043600,-0.069761,0.026160,0.061041,-0.026160,0.034880,0.069761,0.095921,0.087201,0.052320
0.313751,0.376501,0.156875,-0.251000,0.094125,0.219625,-0.094125,0.125500,0.251000,0.345126,0.313751,0.188250
0.590184,0.708220,0.295092,-0.472147,0.177055,0.413129,-0.177055,0.236073,0.472147,0.649202,0.590184,0.354110
0.875465,1.050558,0.437732,-0.700372,0.262639,0.612825,-0.262639,0.350186,0.700372,0.963011,0.875465,0.525279
1.255078,1.506093,0.627539,-1.004062,0.376523,0.878554,-0.376523,0.502031,1.004062,1.380585,1.255078,0.753047
1.456033,1.747239,0.728016,-1.164826,0.436810,1.019223,-0.436810,0.582413,1.164826,1.601636,1.456033,0.873620
1.436484,1.723781,0.718242,-1.149187,0.430945,1.005539,-0.430945,0.574594,1.149187,1.580132,1.436484,0.861890
1.244384,1.493260,0.622192,-0.995507,0.373315,0.871068,-0.373315,0.497753,0.995507,1.368822,1.244384,0.746630
0.905552,1.086662,0.452776,-0.724442,0.271666,0.633886,-0.271666,0.362221,0.724442,0.996107,0.905552,0.543331
0.587646,0.705175,0.293823,-0.470117,0.176294,0.411352,-0.176294,0.235058,0.470117,0.646411,0.587646,0.352588
0.329868,0.395842,0.164934,-0.263895,0.098961,0.230908,-0.098961,0.131947,0.263895,0.362855,0.329868,0.197921
0.100060,0.120072,0.050030,-0.080048,0.030018,0.070042,-0.030018,0.040024,0.080048,0.110066,0.100060,0.060036
0.032923,0.039508,0.016462,-0.026339,0.009877,0.023046,-0.009877,0.013169,0.026339,0.036216,0.032923,0.019754
0.015519,0.018623,0.007759,-0.012415,0.004656,0.010863,-0.004656,0.006208,0.012415,0.017071,0.015519,0.009311
0.002188,0.002626,0.001094,-0.001751,0.000657,0.001532,-0.000657,0.000875,0.001751,0.002407,0.002188,0.001313
-0.144283,-0.173140,-0.072142,0.115427,-0.043285,-0.100998,0.043285,-0.057713,-0.115427,-0.158712,-0.144283,-0.086570
-0.084219,-0.101063,-0.042109,0.067375,-0.025266,-0.058953,0.025266,-0.033688,-0.067375,-0.092641,-0.084219,-0.050531
-0.189050,-0.226860,-0.094525,0.151240,-0.056715,-0.132335,0.056715,-0.075620,-0.151240,-0.207955,-0.189050,-0.113430
-0.198656,-0.238388,-0.099328,0.158925,-0.059597,-0.139059,0.059597,-0.079463,-0.158925,-0.218522,-0.198656,-0.119194
-0.300250,-0.360301,-0.150125,0.240200,-0.090075,-0.210175,0.090075,-0.120100,-0.240200,-0.330276,-0.300250,-0.180150
-0.324333,-0.389200,-0.162167,0.259467,-0.097300,-0.227033,0.097300,-0.129733,-0.259467,-0.356767,-0.324333,-0.194600
-0.274784,-0.329741,-0.137392,0.219827,-0.082435,-0.192349,0.082435,-0.109914,-0.219827,-0.302262,-0.274784,-0.164870
-0.190426,-0.228511,-0.095213,0.152341,-0.057128,-0.133298,0.057128,-0.076170,-0.152341,-0.209469,-0.190426,-0.114256
-0.162009,-0.194411,-0.081004,0.129607,-0.048603,-0.113406,0.048603,-0.064804,-0.129607,-0.178210,-0.162009,-0.097205
-0.174795,-0.209754,-0.087398,0.139836,-0.052439,-0.122357,0.052439,-0.069918,-0.139836,-0.192275,-0.174795,-0.104877
-0.038523,-0.046227,-0.019261,0.030818,-0.011557,-0.026966,0.011557,-0.015409,-0.030818,-0.042375,-0.038523,-0.023114
-0.077676,-0.093212,-0.038838,0.062141,-0.023303,-0.054373,0.023303,-0.031071,-0.062141,-0.085444,-0.077676,-0.046606
-0.042232,-0.050678,-0.021116,0.033785,-0.012669,-0.029562,0.012669,-0.016893,-0.033785,-0.046455,-0.042232,-0.025339
-0.039627,-0.047552,-0.019813,0.031701,-0.011888,-0.027739,0.011888,-0.015851,-0.031701,-0.043589,-0.039627,-0.023776
-0.056372,-0.067647,-0.028186,0.045098,-0.016912,-0.039461,0.016912,-0.022549,-0.045098,-0.062009,-0.056372,-0.033823
-0.037425,-0.044910,-0.018713,0.029940,-0.011228,-0.026198,0.011228,-0.014970,-0.029940,-0.041168,-0.037425,-0.022455
-0.028848,-0.034618,-0.014424,0.023079,-0.008655,-0.020194,0.008655,-0.011539,-0.023079,-0.031733,-0.028848,-0.017309
-0.017184,-0.020621,-0.008592,0.013748,-0.005155,-0.012029,0.005155,-0.006874,-0.013748,-0.018903,-0.017184,-0.010311
-0.000011,-0.000013,-0.000005,0.000008,-0.000003,-0.000007,0.000003,-0.000004,-0.000008,-0.000012,-0.000011,-0.000006
-0.007900,-0.009480,-0.003950,0.006320,-0.002370,-0.005530,0.002370,-0.003160,-0.006320,-0.008690,-0.007900,-0.004740
-0.041617,-0.049941,-0.020809,0.033294,-0.012485,-0.029132,0.012485,-0.016647,-0.033294,-0.045779,-0.041617,-0.024970
-0.001798,-0.002158,-0.000899,0.001439,-0.000539,-0.001259,0.000539,-0.000719,-0.001439,-0.001978,-0.001798,-0.001079
0.033914,0.040697,0.016957,-0.027131,0.010174,0.023740,-0.010174,0.013566,0.027131,0.037305,0.033914,0.020348
0.034523,0.041428,0.017262,-0.027619,0.010357,0.024166,-0.010357,0.013809,0.027619,0.037976,0.034523,0.020714
0.011777,0.014132,0.005889,-0.009422,0.003533,0.008244,-0.003533,0.004711,0.009422,0.012955,0.011777,0.007066
0.028348,0.034018,0.014174,-0.022679,0.008505,0.019844,-0.008505,0.011339,0.022679,0.031183,0.028348,0.017009
0.038990,0.046788,0.019495,-0.031192,0.011697,0.027293,-0.011697,0.015596,0.031192,0.042889,0.038990,0.023394
0.056013,0.067215,0.028006,-0.044810,0.016804,0.039209,-0.016804,0.022405,0.044810,0.061614,0.056013,0.033608
0.069543,0.083452,0.034772,-0.055635,0.020863,0.048680,-0.020863,0.027817,0.055635,0.076498,0.069543,0.041726
0.013132,0.015758,0.006566,-0.010506,0.003940,0.009192,-0.003940,0.005253,0.010506,0.014445,0.013132,0.007879
0.019339,0.023207,0.009670,-0.015472,0.005802,0.013538,-0.005802,0.007736,0.015472,0.021273,0.019339,0.011604
0.077127,0.092553,0.038564,-0.061702,0.023138,0.053989,-0.023138,0.030851,0.061702,0.084840,0.077127,0.046276
0.085972,0.103166,0.042986,-0.068777,0.025792,0.060180,-0.025792,0.034389,0.068777,0.094569,0.085972,0.051583
0.092320,0.110784,0.046160,-0.073856,0.027696,0.064624,-0.027696,0.036928,0.073856,0.101552,0.092320,0.055392
-0.016475,-0.019770,-0.008237,0.013180,-0.004942,-0.011532,0.004942,-0.006590,-0.013180,-0.018122,-0.016475,-0.009885
0.055727,0.066873,0.027864,-0.044582,0.016718,0.039009,-0.016718,0.022291,0.044582,0.061300,0.055727,0.033436
-0.026145,-0.031374,-0.013072,0.020916,-0.007843,-0.018301,0.007843,-0.010458,-0.020916,-0.028759,-0.026145,-0.015687
0.103273,0.123927,0.051636,-0.082618,0.030982,0.072291,-0.030982,0.041309,0.082618,0.113600,0.103273,0.061964
